rep,start,end,peak_idx,peak_time,rms,mdf,env_peak,rep_duration,is_fatigued,file_id,rms_rel_base,rms_delta_base,mdf_rel_base,mdf_delta_base,env_peak_rel_base,env_peak_delta_base,rep_duration_rel_base,rep_duration_delta_base,rms_diff1,rms_roll3_mean,mdf_diff1,mdf_roll3_mean,env_peak_diff1,env_peak_roll3_mean,peak_time_diff1
1,0,7940,4794,2.397,1665.8860429980355,78.125,2059.3015491997767,7940,0,01-01,1.040910823883945,65.47416834667683,1.0714285714138774,5.208333333333329,0.929826746870856,-155.4137793590221,1.1455778386955495,1009.0,0.0,1665.8860429980355,0.0,78.125,0.0,2059.3015491997767,0.0
2,7940,14204,11087,5.5435,1467.8097450233447,78.125,2080.604610318887,6264,0,01-01,0.917144997653921,-132.60212962801393,1.0714285714138774,5.208333333333329,0.9394456179033527,-134.11071823991188,0.9037656903764386,-667.0,-198.07629797469076,1566.8478940106902,0.0,78.125,21.303061119110225,2069.9530797593316,3.1465
3,14204,20793,17322,8.661,1667.5398359326957,62.5,2504.2398261577323,6589,0,01-01,1.0419441784602597,67.1279612813371,0.8571428571311019,-10.416666666666671,1.1307276352244366,289.5244975989335,0.9506564709275789,-342.0,199.73009090935102,1600.4118746513586,-15.625,72.91666666666667,423.6352158388454,2214.715328558799,3.1174999999999997
4,20793,28804,24264,12.132,1440.8733899159174,97.65625,1949.559487636669,8011,0,01-01,0.9003141083472053,-159.53848473544122,1.3392857142673469,24.73958333333333,0.8802754297566734,-265.15584092212976,1.155821670754414,1080.0,-226.6664460167783,1525.4076569573192,35.15625,79.42708333333333,-554.6803385210633,2178.134641371096,3.471
5,28804,36300,33345,16.6725,1454.339704567291,111.328125,2128.166069680865,7496,0,01-01,0.908728388986243,-146.0721700840677,1.5267857142647754,38.41145833333333,0.9609208200427205,-86.54925887793388,1.0815178184964533,565.0,13.466314651373523,1520.9176434719682,13.671875,90.49479166666667,178.60658204419587,2193.988461158422,4.5405
6,36300,42884,39255,19.6275,1477.4981732312035,101.5625,2276.562506686403,6584,0,01-01,0.923198706927956,-122.91370142015512,1.3928571428380407,28.64583333333333,1.0279255655700106,61.847178127604366,0.9499350743037152,-347.0,23.158468663912572,1457.5704225714708,-9.765625,103.515625,148.39643700553825,2118.0960213346457,2.955000000000002
7,42884,49739,46514,23.257,1468.6929470439052,111.328125,2247.4948595174037,6855,0,01-01,0.9176968568562606,-131.71892760745345,1.5267857142647754,38.41145833333333,1.0148007875029794,32.77953095860494,0.9890347713171275,-76.0,-8.80522618729833,1466.8436082808,9.765625,108.07291666666667,-29.06764716899943,2217.4078119615574,3.6295
8,49739,56952,52964,26.482,1487.5789159947687,101.5625,2402.116668292869,7213,0,01-01,0.929497549696637,-112.83295865658988,1.3928571428380407,28.64583333333333,1.0846164458774639,187.40133973407,1.0406867695857682,282.0,18.88596895086357,1477.9233454232926,-9.765625,104.81770833333333,154.62180877546507,2308.724678165559,3.224999999999998
9,56952,63458,60940,30.47,1545.0572341794596,97.65625,2365.1100570378057,6506,0,01-01,0.9654122533395204,-55.354640471899074,1.3392857142673469,24.73958333333333,1.0679070246810487,150.39472847900697,0.9386812869714415,-425.0,57.478318184690806,1500.4430324060443,-3.90625,103.515625,-37.006611255063035,2338.240528282693,3.9879999999999995
10,63458,69338,65977,32.9885,1528.1996924575426,83.984375,2272.1228895380914,5880,0,01-01,0.9548790012505363,-72.21218219381603,1.1517857142699182,11.067708333333329,1.0259209661115336,57.40756097929261,0.8483624296637067,-1051.0,-16.85754172191696,1520.2786142105904,-13.671875,94.40104166666667,-92.98716749971436,2346.449871622922,2.518500000000003
11,69338,75964,72700,36.35,1342.7956928276917,146.484375,1875.514074397626,6626,1,01-01,0.839031323183211,-257.6161818236669,2.0089285714010203,73.56770833333333,0.846842052435357,-339.20125416117276,0.9559948059441702,-305.0,-185.4039996298509,1472.0175398215645,62.5,109.375,-396.60881514046537,2170.915673657841,3.3614999999999995
12,75964,88400,79229,39.6145,1360.7729941743094,150.390625,2657.2553411173526,12436,1,01-01,0.8502642449275105,-239.63888047704927,2.062499999971714,77.47395833333333,1.1998180113041128,442.5400125585538,1.794257682873785,5505.0,17.97730134661765,1410.5894598198477,3.90625,126.953125,781.7412667197266,2268.29743501769,3.264499999999998
1,0,2235,110,0.055,1118.881917069462,41.015625,1085.544609270811,2235,0,01-02,1.1154983168202424,115.848653641733,0.6428571428470671,-22.786458333333336,0.7647713175848597,-333.89226592239766,0.4719504469626651,-2500.666666666667,0.0,1118.881917069462,0.0,41.015625,0.0,1085.544609270811,0.0
2,2235,7761,4361,2.1805,852.1403430221242,76.171875,1478.5851750084714,5526,0,01-02,0.8495633934503843,-150.89292040560474,1.193877551001696,12.369791666666664,1.0416702573026857,59.14829981526282,1.166889561483529,790.333333333333,-266.74157404733774,985.511130045793,35.15625,58.59375,393.0405657376605,1282.0648921396412,2.1254999999999997
3,7761,14207,11161,5.5805,1038.077530191601,74.21875,1694.1808413003432,6446,0,01-02,1.0349382897263828,35.04426676387209,1.1632653061042166,10.416666666666664,1.193558425110341,274.7439661071346,1.361159991553172,1710.333333333333,185.93718716947683,1003.0332634277289,-1.953125,63.802083333333336,215.5956662918718,1419.4368751932086,3.4
4,14207,20256,17253,8.6265,994.9502010107751,74.21875,1986.9468775092253,6049,0,01-02,0.991941381494844,-8.083062416953794,1.1632653061042166,10.416666666666664,1.3998134839475476,567.5100023160167,1.2773280777079021,1313.333333333333,-43.12732918082588,961.7226914081667,0.0,74.86979166666667,292.76603620888204,1719.9042979393469,3.0460000000000003
5,20256,26178,23259,11.6295,1040.0795299726863,72.265625,1960.789001557413,5922,0,01-02,1.036934235278818,37.04626654495735,1.1326530612067371,8.463541666666664,1.3813851364747278,541.3521263642044,1.2505103118178535,1186.333333333333,45.12932896191114,1024.3690870583541,-1.953125,73.56770833333333,-26.15787595181223,1880.6389067889938,3.003
6,26178,31835,29098,14.549,1144.0010088254921,62.5,1983.2142882877697,5657,0,01-02,1.1405414461678816,140.96774539776322,0.9795918367193402,-1.3020833333333357,1.397183857166191,563.7774130945611,1.1945519814173586,921.333333333333,103.92147885280588,1059.676913269651,-9.765625,69.66145833333333,22.425286730356675,1976.983389118136,2.9194999999999993
7,31835,37490,34573,17.2865,1195.1333680215794,62.5,2196.802551704158,5655,0,01-02,1.1915191764789366,192.10010459385046,0.9795918367193402,-1.3020833333333357,1.547657800142461,777.3656765109492,1.194129654395468,919.333333333333,51.132359196087236,1126.4046356065858,0.0,65.75520833333333,213.58826341638814,2046.935280516447,2.7375000000000007
8,37490,43480,40408,20.204,1176.867594853092,64.453125,2123.400971678704,5990,0,01-02,1.173308640662758,173.83433142536308,1.0102040816168196,0.6510416666666643,1.4959460394377724,703.9640964854955,1.2648694305621315,1254.333333333333,-18.265773168487385,1172.0006572333878,1.953125,63.151041666666664,-73.40158002545377,2101.1392705568774,2.9175000000000004
9,43480,49542,46553,23.2765,1188.00443258013,54.6875,1886.3711136287393,6062,0,01-02,1.1844117995838972,184.9711691524011,0.8571428571294227,-9.114583333333336,1.3289573820397222,466.9342384355307,1.2800732033501905,1326.333333333333,11.136837727038028,1186.6684651516005,-9.765625,60.546875,-237.0298580499648,2068.8582123372003,3.072499999999998
10,49542,56058,52531,26.2655,1266.7233809286047,41.015625,2325.2293919353465,6516,0,01-02,1.262892694703352,263.6901175008758,0.6428571428470671,-22.786458333333336,1.6381351172218959,905.7925167421379,1.3759414373193404,1780.333333333333,78.71894834847467,1210.5318027872756,-13.671875,53.385416666666664,438.8582783066072,2111.6671590809297,2.9890000000000008
11,56058,62940,59586,29.793,1367.610063478968,41.015625,1743.4226408961906,6882,1,01-02,1.3634742867888392,364.57680005123905,0.6428571428470671,-22.786458333333336,1.228249506099138,323.985765702982,1.453227282325307,2146.333333333333,100.88668255036328,1274.1126256625676,0.0,45.572916666666664,-581.8067510391559,1985.0077154867588,3.5275
12,62940,69001,66295,33.1475,1164.0444851408508,44.921875,1523.1314112976556,6061,1,01-02,1.160524309195617,161.01122171312193,0.7040816326420258,-18.880208333333336,1.0730532917071494,103.69453610444702,1.2798620398392453,1325.333333333333,-203.56557833811712,1266.125976516141,3.90625,42.317708333333336,-220.29122959853498,1863.927814709731,3.3545000000000016
13,69001,78000,71707,35.8535,1049.0967687339366,41.015625,1755.372488832285,8999,1,01-02,1.0459242050934046,46.06350530620773,0.6428571428470671,-22.786458333333336,1.2366682305559473,335.93561363907634,1.900260434996431,4263.333333333333,-114.9477164069142,1193.583772451252,-3.90625,42.317708333333336,232.2410775346293,1673.9755136753772,2.705999999999996
1,0,4973,2651,1.3255,1229.083670609802,76.171875,2261.153816087972,4973,0,01-03,0.9569085570074193,-55.348014746435865,1.0636363636215114,4.557291666666671,1.022614405788509,50.00384275717579,1.0193358841211355,94.33333333333303,0.0,1229.083670609802,0.0,76.171875,0.0,2261.153816087972,0.0
2,4973,9786,7296,3.648,1299.0583950856833,72.265625,2174.687184798716,4813,0,01-03,1.011387689898336,14.626709729445338,1.0090909090768185,0.6510416666666714,0.9835095814518011,-36.46278853208014,0.9865400382616178,-65.66666666666697,69.9747244758812,1264.0710328477426,-3.90625,74.21875,-86.46663128925593,2217.920500443344,2.3225000000000002
3,9786,14636,12277,6.1385,1325.1529903732287,66.40625,2197.6089191057,4850,0,01-03,1.0317037530919093,40.721305016990755,0.9272727272597792,-5.208333333333329,0.993876012758333,-13.541054225096104,0.9941240776166312,-28.66666666666697,26.094595287545417,1284.431685356238,-5.859375,71.61458333333333,22.921734306984035,2211.149973330796,2.4904999999999995
4,14636,19196,16996,8.498,1488.183795336423,66.40625,2573.3072766178793,4560,0,01-03,1.1586321112302018,203.75210998018497,0.9272727272597792,-5.208333333333329,1.163786856456588,362.1573032870833,0.9346816069962554,-318.66666666666697,163.0308049631942,1370.7983935984448,0.0,68.359375,375.6983575121794,2315.201126840765,2.3594999999999997
5,19196,23982,21396,10.698,1404.016179752319,68.359375,2265.4567291682733,4786,0,01-03,1.093103039856745,119.58449439608103,0.9545454545321256,-3.2552083333333286,1.0245604126773216,54.30675583747734,0.9810057392728242,-92.66666666666697,-84.16761558410394,1405.784321820657,1.953125,67.05729166666667,-307.850547449606,2345.4576416306177,2.200000000000001
6,23982,28930,26569,13.2845,1453.286865384665,64.453125,2499.6903732633223,4948,0,01-03,1.131462951243268,168.85518002842696,0.8999999999874327,-7.161458333333329,1.1304933647249396,288.54039993252627,1.0142115332055859,69.33333333333303,49.27068563234593,1448.4956134911356,-3.90625,66.40625,234.23364409504893,2446.1514596831585,2.586499999999999
7,28930,33619,31291,15.6455,1491.179350693655,64.453125,2274.3010529464595,4689,0,01-03,1.1609643141736374,206.74766533741695,0.8999999999874327,-7.161458333333329,1.0285602878033218,63.15107961566355,0.9611232577204916,-189.66666666666697,37.89248530898999,1449.4941319435463,0.0,65.75520833333333,-225.38932031686272,2346.482718459352,2.3610000000000007
8,33619,38652,35947,17.9735,1470.691451956692,64.453125,2354.5837497085868,5033,0,01-03,1.1450133695103057,186.259766600454,0.8999999999874327,-7.161458333333329,1.0648684069858285,143.43377637779076,1.0316343263184546,154.33333333333303,-20.48789873696296,1471.7192226783372,0.0,64.453125,80.28269676212722,2376.191725306123,2.328000000000001
9,38652,43647,41358,20.679,1443.9854508214894,62.5,2792.993451286892,4995,0,01-03,1.1242212935753566,159.55376546525144,0.8727272727150863,-9.114583333333329,1.2631406666090428,581.8434779560962,1.0238453129268192,116.33333333333303,-26.70600113520254,1468.6187511572787,-1.953125,63.802083333333336,438.40970157830543,2473.959417980646,2.705499999999997
10,43647,49228,45936,22.968,1449.899981689451,60.546875,2460.8149440998054,5581,1,01-03,1.1288260778822126,165.46829633321295,0.8454545454427399,-11.067708333333329,1.1129118213505031,249.66497076900941,1.1439600983873028,702.333333333333,5.914530867961503,1454.8589614892107,-1.953125,62.5,-332.1785071870868,2536.130715031761,2.2890000000000015
11,49228,55140,52520,26.26,767.8386401225921,39.0625,1013.2260812859245,5912,1,01-03,0.5978041875454309,-516.5930452336459,0.545454545446929,-32.55208333333333,0.4582348974543682,-1197.9238920448715,1.2118065045091801,1033.333333333333,-682.0613415668588,1220.5746908778442,-21.484375,54.036458333333336,-1447.588862813881,2089.0114922242074,3.2920000000000016
12,55140,58800,57760,28.88,892.1586517023786,44.921875,1167.4785941285977,3660,1,01-03,0.6945940853633202,-392.27303365385933,0.6272727272639683,-26.69270833333333,0.5279961143338561,-1043.6713792021983,0.7502049740364681,-1218.666666666667,124.32001157978652,1036.6324245048072,5.859375,48.177083333333336,154.25251284267324,1547.1732065047756,2.6199999999999974
1,0,5097,2375,1.1875,1332.7559919982946,76.171875,2025.6636057603444,5097,0,01-04,0.9921998586059263,-10.477410463452088,1.073394495397718,5.208333333333329,0.9332392180249466,-144.90913339908388,0.8410428469279729,-963.333333333333,0.0,1332.7559919982946,0.0,76.171875,0.0,2025.6636057603444,0.0
2,5097,11848,7820,3.91,1301.7002297210377,72.265625,2317.9802840561733,6751,0,01-04,0.9690797052354713,-41.533172740709006,1.0183486238388606,1.3020833333333286,1.0679118198788224,147.4075448967451,1.1139651284305956,690.666666666667,-31.055762277256918,1317.2281108596662,-3.90625,74.21875,292.316678295829,2171.821944908259,2.7225
3,11848,18181,15877,7.9385,1395.2439856659073,64.453125,2168.0743276617663,6333,0,01-04,1.0387204361563687,52.01058320416064,0.908256880721146,-6.510416666666671,0.9988489620948486,-2.498411497661891,1.0449920246409363,272.66666666666697,93.54375594486964,1343.2334024617464,-7.8125,70.96354166666667,-149.90595639440699,2170.5727391594282,4.0285
4,18181,23109,20485,10.2425,1390.0977740019841,64.453125,2533.5479201690205,4928,0,01-04,1.0348892243546908,46.86437154023747,0.908256880721146,-6.510416666666671,1.1672255319805547,362.97518100959223,0.8131565920465079,-1132.333333333333,-5.146211663923168,1362.3473297963099,0.0,67.05729166666667,365.4735925072541,2339.8675106289866,2.3039999999999994
5,23109,27836,25733,12.8665,1479.0346851268175,54.6875,2351.050531725105,4727,0,01-04,1.1011002871244018,135.80128266507086,0.7706422018240026,-16.27604166666667,1.0831475441060248,180.47779256567674,0.7799900995543513,-1333.333333333333,88.93691112483339,1421.4588149315696,-9.765625,61.197916666666664,-182.4973884439155,2350.8909265186307,2.6240000000000006
6,27836,32755,29940,14.97,1440.8965558707184,64.453125,2247.5285147947266,4919,0,01-04,1.0727075080391177,97.66315340897177,0.908256880721146,-6.510416666666671,1.035454133485554,76.95577563529832,0.8116715252185008,-1141.333333333333,-38.13812925609909,1436.6763383331734,9.765625,61.197916666666664,-103.52201693037841,2377.375655562951,2.1035000000000004
7,32755,38489,35570,17.785,1196.8740008224474,58.59375,2717.200069929586,5734,0,01-04,0.8910394862337722,-146.35940163929922,0.8256880733828599,-12.369791666666671,1.251835527511781,546.6273307701576,0.9461525768658028,-326.33333333333303,-244.022555048271,1372.2684139399944,-5.859375,59.244791666666664,469.6715551348593,2438.5930388164725,2.8149999999999995
8,38489,45075,41408,20.704,899.1645250797312,52.734375,1491.1067937418068,6586,0,01-04,0.6694030415199332,-444.06887738201544,0.7431192660445739,-18.22916666666667,0.6869646738116516,-679.4659454176215,1.0867389032504668,525.666666666667,-297.7094757427162,1178.9783605909658,-5.859375,58.59375,-1226.093276187779,2151.945126155373,2.9190000000000005
9,45075,52168,48742,24.371,1116.188560738813,48.828125,1828.2521340673895,7093,1,01-04,0.8309714147164157,-227.0448417229336,0.6880733944857166,-22.13541666666667,0.8422901942344271,-342.3206050920387,1.1703976678948622,1032.666666666667,217.02403565908185,1070.742362213664,-3.90625,53.385416666666664,337.14534032558277,2012.186332579594,3.666999999999998
10,52168,58646,55595,27.7975,809.759537082535,50.78125,1490.5449699881335,6478,1,01-04,0.6028435085055837,-533.4738653792117,0.7155963302651452,-20.18229166666667,0.6867058371721154,-680.0277691712947,1.0689181013143827,417.66666666666697,-306.4290236562781,941.704207633693,1.953125,50.78125,-337.707164079256,1603.3012992657766,3.4265000000000008
11,58646,64640,61697,30.8485,738.3988107466865,56.640625,1045.9302090959875,5994,1,01-04,0.5497174276584187,-604.8345917150601,0.7981651376034312,-14.322916666666671,0.4818683061045678,-1124.6425300634407,0.9890545074526722,-66.33333333333303,-71.36072633584843,888.1156361893449,5.859375,52.083333333333336,-444.614760892146,1454.9091043838368,3.051000000000002
12,64640,70200,67584,33.792,775.9883809434461,42.96875,1046.6399086860945,5560,1,01-04,0.5777018197438456,-567.2450215183005,0.6055045871474306,-27.99479166666667,0.48219527030959214,-1123.9328304733338,0.9174412848576672,-500.33333333333303,37.58957019675961,774.7155762575559,-13.671875,50.130208333333336,0.7096995901069931,1194.3716959234052,2.9435000000000002
1,0,6396,3992,1.996,622.2743736555143,52.734375,1235.8662497775454,6396,0,01-05,0.8969607141928898,-71.48440954220598,1.1095890410725435,5.208333333333336,0.9585874934815547,-53.391390428009345,1.212052302444341,1119.0,0.0,622.2743736555143,0.0,52.734375,0.0,1235.8662497775454,0.0
2,6396,10896,8800,4.4,762.3936304119663,41.015625,1237.8785424314333,4500,0,01-05,1.0989318605766556,68.63484721424607,0.8630136986119783,-6.510416666666664,0.9601483084739448,-51.37909777412142,0.8527572484364501,-777.0,140.11925675645205,692.3340020337403,-11.71875,46.875,2.0122926538879256,1236.8723961044893,2.4040000000000004
3,10896,15831,12992,6.496,696.6083455256802,48.828125,1394.0281284076855,4935,0,01-05,1.0041074252261304,2.849562327959916,1.0273972602523551,1.3020833333333357,1.0812641980421736,104.77048820213076,0.9351904491186402,-342.0,-65.78528488628615,693.7587831977203,7.8125,47.526041666666664,156.14958597625218,1289.2576402055547,2.096
4,15831,20958,18671,9.3355,733.338703239063,50.78125,1601.656890350531,5127,0,01-05,1.057051414697557,39.57992004134269,1.0684931506624493,3.2552083333333357,1.2423094038007223,312.39925014497635,0.9715747583852621,-150.0,36.73035771338277,730.7802263922364,1.953125,46.875,207.62876194284559,1411.1878537298833,2.8394999999999992
5,20958,25254,23246,11.623,734.0860897004369,41.015625,1142.2037974098002,4296,0,01-05,1.0581287148766307,40.327306502716624,0.8630136986119783,-6.510416666666664,0.8859391341103904,-147.05384279575446,0.8140989198406643,-981.0,0.7473864613739352,721.3443794883933,-9.765625,46.875,-459.4530929407308,1379.2962720560056,2.2874999999999996
6,25254,30552,27262,13.631,611.3792762740388,37.109375,1030.4416691809397,5298,0,01-05,0.8812562681443059,-82.37950692368145,0.7808219177917899,-10.416666666666664,0.7992519392910873,-258.815971024615,1.0039795338258473,21.0,-122.70681342639807,692.9346897378463,-3.90625,42.96875,-111.76212822886055,1258.1007856470903,2.008000000000001
7,30552,36567,33843,16.9215,720.376782770228,56.640625,1324.729735555831,6015,0,01-05,1.0383678019163662,26.617999572507756,1.191780821892732,9.114583333333336,1.027513581648113,35.47209535027628,1.1398521887433881,738.0,108.9975064961892,688.614049581568,19.53125,44.921875,294.2880663748913,1165.7917340488568,3.2905000000000015
8,36567,41707,39292,19.646,741.8151347551885,42.96875,1212.3213252431192,5140,1,01-05,1.0692695396732772,48.05635155746825,0.9041095890220725,-4.557291666666664,0.9403251044910548,-76.93631496243552,0.9740382793251896,-137.0,21.43835198496049,691.1903979331519,-13.671875,45.572916666666664,-112.4084103127118,1189.16424332663,2.724499999999999
9,41707,47942,44122,22.061,640.2470313041333,48.828125,1207.1459263663455,6235,1,01-05,0.9228669197557978,-53.51175189358696,1.0273972602523551,1.3020833333333357,0.9363108572875676,-82.11171383920919,1.1815425431113924,958.0,-101.56810345105521,700.8129829431833,5.859375,49.479166666666664,-5.17539887677367,1248.0656623884317,2.414999999999999
10,47942,55760,51762,25.881,633.7014081207539,60.546875,1136.6735033171283,7818,1,01-05,0.9134319066908828,-60.05737507696642,1.2739726027129203,13.020833333333336,0.8816496159255022,-152.58413688842643,1.4815235929502593,2541.0,-6.545623183379462,671.9211913933585,11.71875,50.78125,-70.47242304921724,1185.3802516421977,3.8200000000000003
11,55760,63525,59758,29.879,621.7517699230904,41.015625,1094.8169972416304,7765,1,01-05,0.8962074210525646,-72.00701327462991,0.8630136986119783,-6.510416666666664,0.8491840289317405,-194.44064296392435,1.4714800075797854,2488.0,-11.94963819766349,631.9000697826592,-19.53125,50.130208333333336,-41.85650607549792,1146.2121423083681,3.998000000000001
12,63525,71370,67293,33.6465,903.4709403902766,29.296875,2061.3879778858386,7845,1,01-05,1.3022839670939148,209.71215719255633,0.6164383561514131,-18.229166666666664,1.5988952972623682,772.1303376802839,1.486640136440878,2568.0,281.71917046718625,719.6413728113736,-11.71875,43.619791666666664,966.5709806442082,1430.9594928148656,3.767500000000002
13,71370,77616,75447,37.7235,986.4796595017885,37.109375,2091.7329070191836,6246,1,01-05,1.4219346599886165,292.72087630406827,0.7808219177917899,-10.416666666666664,1.6224320428956795,802.4752668136289,1.1836270608297927,969.0,83.00871911151194,837.2341232717184,7.8125,35.807291666666664,30.344929133344976,1749.3126273822174,4.076999999999998
14,77616,83000,79786,39.893,1019.358708393958,35.15625,1756.2245645508956,5384,1,01-05,1.4693272836042393,325.5999251962377,0.7397260273816957,-12.369791666666664,1.3621982990688557,466.9669243453409,1.0202766723515215,107.0,32.87904889216941,969.7697694286744,-1.953125,33.854166666666664,-335.508342468288,1969.7818164853059,2.1694999999999993
1,0,4466,2173,1.0865,379.6222102644484,54.6875,613.1687344475721,4466,0,02-01,1.040868735088664,14.905510198449917,0.9882352940997892,-0.6510416666666643,1.1128080038033858,62.1583783477289,0.874942859008514,-638.333333333333,0.0,379.6222102644484,0.0,54.6875,0.0,613.1687344475721,0.0
2,4466,9680,6760,3.38,368.52608114178656,52.734375,537.3925401996039,5214,0,02-01,1.010444767333353,3.8093810757880533,0.9529411764533682,-2.6041666666666643,0.9752857351037754,-13.617815900239293,1.021485012734078,109.66666666666697,-11.096129122661864,374.0741457031175,-1.953125,53.7109375,-75.77619424796819,575.280637323588,2.2935
3,9680,15313,12600,6.3,346.0018087917604,58.59375,502.4697936523534,5633,0,02-01,0.9486864975697572,-18.714891274238084,1.0588235293926314,3.2552083333333357,0.9119062610873939,-48.540562447489776,1.1035721282568203,528.666666666667,-22.524272350026138,364.7167000659985,5.859375,55.338541666666664,-34.92274654725048,551.0103560998431,2.92
4,15313,20752,18026,9.013,381.5953404347651,58.59375,516.2716653191134,5439,0,02-01,1.0462787702473344,16.878640368766582,1.0588235293926314,3.2552083333333357,0.9369545592072827,-34.738690780729826,1.0655652060338798,334.66666666666697,35.59353164300467,365.3744101227707,0.0,56.640625,13.80187166675995,518.7113330570236,2.713
5,20752,26056,23478,11.739,361.81372324651585,54.6875,513.0455576979346,5304,0,02-01,0.9920404609387249,-2.90297681948266,0.9882352940997892,-0.6510416666666643,0.9310996644934918,-37.96479840190864,1.0391170900539988,199.66666666666697,-19.781617188249243,363.1369574910138,-3.90625,57.291666666666664,-3.2261076211788122,510.5956722231338,2.726000000000001
6,26056,30990,28634,14.317,416.142639479674,58.59375,559.6677561914976,4934,0,02-01,1.1410024257272249,51.42593941367551,1.0588235293926314,3.2552083333333357,1.015711864568059,8.657400091654381,0.9666296610721021,-170.33333333333303,54.32891623315817,386.51723438698497,3.90625,57.291666666666664,46.62219849356302,529.6616597361818,2.5779999999999994
7,30990,35986,33347,16.6735,401.24788061550083,52.734375,575.6935163042375,4996,0,02-01,1.100163169226393,36.531180549502324,0.9529411764533682,-2.6041666666666643,1.044796182013822,24.683160204394312,0.9787762032258254,-108.33333333333303,-14.894758864173184,393.0680811138969,-5.859375,55.338541666666664,16.02576011273993,549.4689433978899,2.3565000000000005
8,35986,41405,38625,19.3125,374.4200748513178,56.640625,499.59819605508267,5419,0,02-01,1.0266052384838336,9.703374785319284,1.0235294117462101,1.3020833333333357,0.9066947481539688,-51.412160044760526,1.061646966629453,314.66666666666697,-26.82780576418304,397.27019831549757,3.90625,55.989583333333336,-76.09532024915484,544.9864895169393,2.6389999999999993
9,41405,47411,44186,22.093,471.87915039518225,50.78125,767.8159852569545,6006,0,02-01,1.2938238098461026,107.16245032918374,0.9176470588069471,-4.557291666666664,1.3934692456423317,216.8056291571113,1.176647293149381,901.666666666667,97.45907554386446,415.84903528733366,-5.859375,53.385416666666664,268.2177892018718,614.3692325387583,2.7805
10,47411,53264,50636,25.318,383.3978021338747,54.6875,570.1449770955687,5853,1,02-01,1.051220857348853,18.681102067876168,0.9882352940997892,-0.6510416666666643,1.034726427158519,19.134620995725527,1.1466727617055155,748.666666666667,-88.48134826130757,409.89900912679155,3.90625,54.036458333333336,-197.67100816138577,612.519719469202,3.2250000000000014
11,53264,58716,55892,27.946,401.47188217779575,54.6875,580.1465193019577,5452,1,02-01,1.100777348841019,36.75518211179724,0.9882352940997892,-0.6510416666666643,1.0528777052527525,29.136163202114517,1.0681120616467574,347.66666666666697,18.07408004392107,418.91627823561754,0.0,53.385416666666664,10.00154220638899,639.3691605514937,2.628
12,58716,64138,61541,30.7705,415.24424869269603,56.640625,605.3307717218601,5422,1,02-01,1.1385391692138462,50.527548626697524,1.0235294117462101,1.3020833333333357,1.0985832934346436,54.32041562201687,1.062234702540117,317.66666666666697,13.772366514900284,400.0379776681221,1.953125,55.338541666666664,25.18425241990235,585.2074227064622,2.824499999999997
13,64138,69446,66735,33.3675,388.77450913757764,54.6875,545.8947020068468,5308,1,02-01,1.06596300379489,24.05780907157913,0.9882352940997892,-0.6510416666666643,0.9907158657957055,-5.115654092996351,1.0399007379348841,203.66666666666697,-26.469739555118394,401.8302133360232,-1.953125,55.338541666666664,-59.43606971501322,577.1239976768883,2.5970000000000013
14,69446,77600,72158,36.079,356.15839689598704,48.828125,624.2962448028065,8154,1,02-01,0.9765343808785304,-8.55830317001147,0.8823529411605261,-6.510416666666664,1.1330027428532594,73.28588870296335,1.5974662051848239,3049.666666666667,-32.6161122415906,386.7257182420869,-5.859375,53.385416666666664,78.4015427959597,591.8405728438379,2.711500000000001
1,0,4548,1369,0.6845,471.7211435576044,39.0625,965.0317349880556,4548,0,02-02,1.0065683871458644,3.0782281028797343,0.7792207792052352,-11.067708333333336,1.0942142391291603,83.09134299042444,0.8549943601953525,-771.333333333333,0.0,471.7211435576044,0.0,39.0625,0.0,965.0317349880556,0.0
2,4548,10456,7728,3.864,508.52816728502,66.40625,720.4700616382971,5908,0,02-02,1.0851079799008794,39.88525183029532,1.3246753246489,16.276041666666664,0.8169146896714709,-161.47033035933407,1.1106654969292309,588.666666666667,36.80702372741558,490.12465542131224,27.34375,52.734375,-244.5616733497585,842.7508983131763,3.1795
3,10456,15958,13185,6.5925,425.6794355215495,44.921875,960.3193793665408,5502,0,02-02,0.9083236329468547,-42.963479933175165,0.8961038960860206,-5.208333333333336,1.0888710711959673,78.37898736890963,1.0343401428748524,182.66666666666697,-82.84873176347048,468.6429154547247,-21.484375,50.130208333333336,239.8493177282437,881.9403919976312,2.7285000000000004
4,15958,21406,18732,9.366,440.9372903620037,46.875,785.7409041170949,5448,0,02-02,0.9408811609436599,-27.705625092720993,0.9350649350462824,-3.2552083333333357,0.8909229141172099,-96.19948788053625,1.0241884947986544,128.66666666666697,15.257854840454172,458.38163105619105,1.953125,52.734375,-174.5784752494459,822.176781707311,2.7734999999999994
5,21406,27654,24081,12.0405,406.86706952311005,46.875,628.7923596655639,6248,0,02-02,0.8681814151131643,-61.77584593161464,0.9350649350462824,-3.2552083333333357,0.7129646916846732,-253.14803233206726,1.1745832811127006,928.666666666667,-34.07022083889365,424.4945984688877,0.0,46.223958333333336,-156.948544451531,791.6175477164,2.6745
6,27654,33988,31228,15.614,398.91998401577393,48.828125,707.5397395989464,6334,0,02-02,0.8512237587713244,-69.72293143895075,0.9740259740065441,-1.3020833333333357,0.8022534697560882,-174.40065239868477,1.1907507206414605,1014.666666666667,-7.947085507336112,415.57478130029585,1.953125,47.526041666666664,78.74737993338249,707.3576677938685,3.573500000000001
7,33988,39176,36748,18.374,636.4888665906894,111.328125,1479.9582676522948,5188,0,02-02,1.3581531814510532,167.84595113596475,2.2207792207349204,61.197916666666664,1.6780706282183657,598.0178756546636,0.9753101892465894,-131.33333333333303,237.5688825749155,480.7586400431912,62.5,69.01041666666667,772.4185280533484,938.7634556389352,2.759999999999998
8,39176,44808,41605,20.8025,421.6464903986272,56.640625,650.6157514169333,5632,0,02-02,0.8997180507649485,-46.99642505609751,1.1298701298475913,6.510416666666664,0.7377094385511976,-231.32464058069786,1.058779295650885,312.66666666666697,-214.84237619206226,485.6851136683635,-54.6875,72.265625,-829.3425162353615,946.0379195560582,2.4284999999999997
9,44808,50640,48011,24.0055,636.7588759764274,62.5,1175.330218383968,5832,0,02-02,1.3587293330940913,168.11596052170268,1.2467532467283764,12.369791666666664,1.332664008868518,293.38982638633684,1.0963779922293966,512.666666666667,215.11238557780018,564.9647443219146,5.859375,76.82291666666667,524.7144669670347,1101.9680791510655,3.203000000000003
10,50640,56558,53269,26.6345,445.8788895801803,52.734375,793.2813790436101,5918,0,02-02,0.951425648132528,-22.76402587454436,1.0519480519270676,2.6041666666666643,0.899472783240935,-88.65901295402114,1.1125454317581565,598.666666666667,-190.87998639624703,501.4280853184116,-9.765625,57.291666666666664,-382.048839340358,873.0757829481705,2.628999999999998
11,56558,62731,59847,29.9235,435.32950274699516,52.734375,660.2170348656682,6173,0,02-02,0.9289151470980108,-33.313412707729526,1.0519480519270676,2.6041666666666643,0.7485959831928107,-221.72335713196298,1.1604837698957589,853.666666666667,-10.549386833185167,505.9890894345342,0.0,55.989583333333336,-133.06434417794185,876.2762107644154,3.2890000000000015
12,62731,68881,65616,32.808,423.1883299388307,56.640625,859.2977329287334,6150,0,02-02,0.9030080600435572,-45.454585515893996,1.1298701298475913,6.510416666666664,0.974326315842519,-22.642659068897842,1.1561599197892298,830.666666666667,-12.14117280816447,434.798907422002,3.90625,54.036458333333336,199.08069806306514,770.9320489460039,2.884499999999999
13,68881,83600,72147,36.0735,329.7889685591677,48.828125,820.1001737295531,14719,0,02-02,0.7037105601787865,-138.853946895557,0.9740259740065441,-1.3020833333333357,0.9298816350513924,-61.84021826807805,2.7670760746955567,9399.666666666668,-93.39936137966299,396.1022670816645,-7.8125,52.734375,-39.197559199180205,779.8716471746516,3.265500000000003
1,0,5503,2746,1.373,446.5881092291874,50.78125,826.441247776822,5503,0,02-03,0.9621025553663833,-17.591210051549524,1.0684931506624493,3.2552083333333357,0.8480087052479557,-148.12569081884328,0.9511984328184574,-282.33333333333303,0.0,446.5881092291874,0.0,50.78125,0.0,826.441247776822,0.0
2,5503,11362,8261,4.1305,476.3218845909012,42.96875,957.8680281744665,5859,0,02-03,1.0261592121940148,12.142565310164287,0.9041095890220725,-4.557291666666664,0.982865301744953,-16.698910421198775,1.0127333486976815,73.66666666666697,29.73377536171381,461.4549969100443,-7.8125,46.875,131.4267803976445,892.1546379756443,2.7574999999999994
3,11362,17356,14463,7.2315,469.627964022122,48.828125,1139.3915398357071,5994,0,02-03,1.0117382324331385,5.448644741385067,1.0273972602523551,1.3020833333333357,1.1691259930040128,164.82460124004183,1.0360682184833425,208.66666666666697,-6.69392056877922,464.17931928073693,5.859375,47.526041666666664,181.5235116612406,974.5669385956653,3.101
4,17356,23316,20250,10.125,436.79597498547264,54.6875,902.6100079796954,5960,0,02-03,0.941006970455649,-27.383344295264294,1.1506849314826377,7.161458333333336,0.9261652250171909,-71.9569306159699,1.0301912883151019,174.66666666666697,-32.83198903664936,460.915274532832,5.859375,48.828125,-236.78153185601172,999.9565253299564,2.8935000000000004
5,23316,29288,26382,13.191,445.95786087073805,42.96875,902.3926823060317,5972,0,02-03,0.9607447862192687,-18.22145840999889,0.9041095890220725,-4.557291666666664,0.9259422278426955,-72.1742562896336,1.0322654989627162,186.66666666666697,9.161885885265406,450.7939332927776,-11.71875,48.828125,-0.21732567366370859,981.4647433738114,3.0660000000000007
6,29288,35942,32194,16.097,468.1311368991399,48.828125,849.5192638888147,6654,0,02-03,1.0085135581299012,3.95181761840297,1.0273972602523551,1.3020833333333357,0.8716889833263646,-125.04767470685056,1.150149804102129,868.666666666667,22.173276028401858,450.2949909184502,5.859375,48.828125,-52.87341841721695,884.8406513915139,2.9060000000000006
7,35942,42674,39691,19.8455,412.5935786977754,48.828125,811.1460489123348,6732,0,02-03,0.888866783932157,-51.585740582961535,1.0273972602523551,1.3020833333333357,0.8323143509057986,-163.42088968333053,1.163632173311622,946.666666666667,-55.537558201364504,442.2275254892177,0.0,46.875,-38.37321497647997,854.3526650357271,3.7485
8,42674,49008,45657,22.8285,495.8526906221631,46.875,837.7249880967108,6334,0,02-03,1.0682352057162672,31.67337134142616,0.9863013698422609,-0.6510416666666643,0.8595869148844706,-136.84195049895447,1.0948375201657476,548.666666666667,83.2591119243877,458.8591354063595,-1.953125,48.177083333333336,26.578939184376054,832.7967669659535,2.982999999999997
9,49008,56355,52359,26.1795,428.9167828933771,50.78125,594.308191620703,7347,0,02-03,0.9240325130319799,-35.26253638735983,1.0684931506624493,3.2552083333333357,0.6098177232202042,-380.25874697496226,1.2699354690018547,1561.666666666667,-66.93590772878599,445.7876840711053,3.90625,48.828125,-243.4167964760078,747.7264095432496,3.3510000000000026
10,56355,63806,60352,30.176,444.558990338353,48.828125,785.8978635003494,7451,1,02-03,0.9577311437016537,-19.620328942383935,1.0273972602523551,1.3020833333333357,0.8064072690912425,-188.66907509531586,1.2879119612811787,1665.666666666667,15.642207444975895,456.44282128463107,-1.953125,48.828125,191.5896718796464,739.3103477392546,3.9964999999999975
11,63806,70477,67260,33.63,456.8399585573167,44.921875,821.1815239651237,6671,1,02-03,0.9841885227980923,-7.339360723420214,0.9452054794321667,-2.6041666666666643,0.8426117195680678,-153.38541463054162,1.1530882691862492,885.666666666667,12.280968218963721,443.4385772630156,-3.90625,48.177083333333336,35.28366046477424,733.7958596953921,3.454000000000004
12,70477,80294,73695,36.8475,397.7084593682496,56.640625,658.4662783761365,9817,1,02-03,0.8567991783512819,-66.47085991248736,1.191780821892732,9.114583333333336,0.6756501296096703,-316.1006602195288,1.696877160635798,4031.666666666667,-59.13149918906714,433.03580275463975,11.71875,50.130208333333336,-162.71524558898716,755.1818886138699,3.217499999999994
13,80294,89067,86893,43.4465,243.02630221086616,56.640625,321.12135060709903,8773,1,02-03,0.5235612447941905,-221.15301706987077,1.191780821892732,9.114583333333336,0.32950158464178975,-653.4455879885663,1.5164208342933538,2987.666666666667,-154.68215715738341,365.8582400454775,0.0,52.734375,-337.3449277690375,600.2563843161197,6.599000000000004
14,89067,93000,91242,45.621,391.25255065307033,97.65625,1033.6072019079284,3933,1,02-03,0.8428909570087866,-72.9267686276666,2.0547945205047102,50.130208333333336,1.0605810242201306,59.04026331226305,0.6798225397555866,-1852.333333333333,148.22624844220417,343.995770744062,41.015625,70.3125,712.4858513008294,671.0649436303879,2.174500000000002
1,0,4823,2142,1.071,1181.4324444760855,64.453125,1477.514172700863,4823,0,03-01,1.0103418346857869,12.093114047887411,1.0531914893444927,3.2552083333333357,0.8666285197138868,-227.384915074128,0.9154118689103664,-445.66666666666697,0.0,1181.4324444760855,0.0,64.453125,0.0,1477.514172700863,0.0
2,4823,10092,7505,3.7525,1200.523681138119,58.59375,1770.4065224676924,5269,0,03-01,1.0266683501507428,31.184350709920864,0.9574468084949933,-2.6041666666666643,1.0384230569195476,65.50743469270151,1.0000632671135643,0.33333333333303017,19.091236662033452,1190.978062807102,-5.859375,61.5234375,292.8923497668295,1623.9603475842778,2.6814999999999998
3,10092,15806,12679,6.3395,1126.0618656703898,60.546875,1866.7765681564172,5714,0,03-01,0.962989815160905,-43.277464757808275,0.9893617021114931,-0.6510416666666643,1.094948423364806,161.87748038142627,1.0845248639754994,445.33333333333303,-74.46181546772914,1169.339330428198,1.953125,61.197916666666664,96.37004568872476,1704.899087774991,2.587
4,15806,21531,18933,9.4665,1388.574057046406,58.59375,2038.1045791239983,5725,0,03-01,1.1874859768350898,219.23472661820801,0.9574468084949933,-2.6041666666666643,1.1954400079964074,333.2054913490074,1.08661267872939,456.33333333333303,262.5121913760163,1238.386534618305,-1.953125,59.244791666666664,171.32801096758112,1891.7625565827027,3.127
5,21531,27210,24130,12.065,1306.3452538247839,62.5,2182.216798143902,5679,0,03-01,1.1171652400892893,137.00592339658579,1.0212765957279928,1.3020833333333357,1.2799683065057905,477.3177103689111,1.0778818170313023,410.33333333333303,-82.22880322162223,1273.6603921805265,3.90625,60.546875,144.1122190199037,2029.0326484747723,2.5984999999999996
6,27210,34219,30290,15.145,1196.6000749592558,60.546875,2075.0221616101694,7009,0,03-01,1.0233129458837682,27.260744531057753,0.9893617021114931,-0.6510416666666643,1.2170938306483565,370.1230738351785,1.3303176009107938,1740.333333333333,-109.74517886552803,1297.1731286101485,-1.953125,60.546875,-107.19463653373259,2098.4478462926895,3.08
7,34219,41122,38149,19.0745,1319.1295212853865,58.59375,2087.4118771916983,6903,0,03-01,1.128098137947014,149.79019085718846,0.9574468084949933,-2.6041666666666643,1.2243609561165807,382.5127894167074,1.3101986587369396,1634.333333333333,122.52944632613071,1274.024950023142,-1.953125,60.546875,12.38971558152889,2114.8836123152564,3.929500000000001
8,41122,47493,44095,22.0475,1341.037077884113,60.546875,2489.271372682344,6371,1,03-01,1.1468331244719994,171.69774745591485,0.9893617021114931,-0.6510416666666643,1.460069625545728,784.3722849073531,1.209224345185143,1102.333333333333,21.907556598726387,1285.588891376252,1.953125,59.895833333333336,401.8594954906457,2217.235137161404,2.972999999999999
9,47493,54243,50891,25.4455,1303.0274311738563,56.640625,2256.7738841781493,6750,1,03-01,1.1143278920547288,133.68810074565818,0.9255319148784935,-4.557291666666664,1.3236993909839372,551.8747964031584,1.281159053523735,1481.333333333333,-38.009646710256675,1321.0646767811186,-3.90625,58.59375,-232.49748850419473,2277.8190446840636,3.3979999999999997
10,54243,60902,57595,28.7975,1304.8235556586583,56.640625,2287.4650675073244,6659,1,03-01,1.11586390853691,135.4842252304602,0.9255319148784935,-4.557291666666664,1.3417011504717737,582.5659797323335,1.2638871314688223,1390.333333333333,1.7961244848020215,1316.2960215722094,0.0,57.942708333333336,30.691183329175146,2344.503441455939,3.3520000000000003
11,60902,67182,64209,32.1045,1405.3211240686562,58.59375,2199.6813825389218,6280,1,03-01,1.2018077965040674,235.98179364045814,0.9574468084949933,-2.6041666666666643,1.2902120707967326,494.78229476393085,1.1919524231302303,1011.333333333333,100.49756840999794,1337.724036967057,1.953125,57.291666666666664,-87.78368496840267,2247.973444741465,3.307000000000002
12,67182,74838,70155,35.0775,1281.213766873732,44.921875,2258.4818961484484,7656,1,03-01,1.0956732006982706,111.874436445534,0.7340425531794948,-16.276041666666664,1.324701216829552,553.5828083734575,1.4531190687078095,2387.333333333333,-124.10735719492413,1330.4528155336823,-13.671875,53.385416666666664,58.80051360952666,2248.5427820648983,2.972999999999999
13,74838,83600,79521,39.7605,441.54344099484865,31.25,1902.6367412294424,8762,1,03-01,0.37760077806737513,-727.7958894333494,0.5106382978639964,-29.947916666666664,1.1159820278345016,197.73765345445145,1.6630393521444393,3493.333333333333,-839.6703258788834,1042.6927773124123,-13.671875,44.921875,-355.84515491900606,2120.2666733056044,4.683
1,0,4508,1936,0.968,1380.3977136968315,66.40625,1866.2507216556735,4508,0,03-02,1.0842162919947327,107.22212697316922,0.9999999999849412,0.0,0.9999084443743043,-0.17088139667953328,0.8001419950300318,-1126.0,0.0,1380.3977136968315,0.0,66.40625,0.0,1866.2507216556735,0.0
2,4508,10626,7081,3.5405,1137.8852481155945,68.359375,1662.483002614783,6118,0,03-02,0.893737878718589,-135.2903386080677,1.0294117646903806,1.953125,0.8907328332971828,-203.93860043757013,1.0859069932550431,484.0,-242.51246558123694,1259.141480906213,1.953125,67.3828125,-203.7677190408906,1764.366862135228,2.5725000000000002
3,10626,16902,14171,7.0855,1301.2437983585608,64.453125,2070.5310848866025,6276,0,03-02,1.022045829284322,28.06821163489849,0.9705882352795017,-1.953125,1.1093587223269055,204.10948183424944,1.1139510117143923,642.0,163.3585502429662,1273.1755867236623,-3.90625,66.40625,408.04808227181957,1866.421603052353,3.5449999999999995
4,16902,21895,19633,9.8165,1509.3386711613414,66.40625,2294.2264750055474,4993,0,03-02,1.1854913704748502,236.16308443767912,0.9999999999849412,0.0,1.2292112731937583,427.8048719531944,0.8862264820729701,-641.0,208.09487280278063,1316.155905878499,1.953125,66.40625,223.69539011894494,2009.080187502311,2.731
5,21895,27148,24157,12.0785,1362.1266509128398,62.5,2209.137318473367,5253,0,03-02,1.0698655119652511,88.95106418917749,0.9411764705740623,-3.90625,1.1836218113095947,342.715715421014,0.9323748668794937,-381.0,-147.21202024850163,1390.9030401442471,-3.90625,64.453125,-85.08915653218037,2191.298292788506,2.2620000000000005
6,27148,33576,30139,15.0695,1423.770244733846,62.5,2443.978263195864,6428,0,03-02,1.1182827094545535,150.59465801018382,0.9411764705740623,-3.90625,1.3094459789779884,577.5566601435112,1.1409300674474367,794.0,61.643593821006334,1431.745188936009,0.0,63.802083333333336,234.84094472249717,2315.78068555826,2.9909999999999997
7,33576,39904,37014,18.507,1534.4803016450255,56.640625,2339.483514940558,6328,0,03-02,1.2052385528319693,261.30471492136326,0.8529411764577439,-9.765625,1.2534592993958622,473.06191188820503,1.123180688675697,694.0,110.71005691117944,1440.1257324305705,-5.859375,60.546875,-104.49474825530615,2330.8663655365963,3.4375000000000018
8,39904,47135,42794,21.397,1461.5650841295121,58.59375,2381.5358850395355,7231,1,03-02,1.1479681980782366,188.38949740584985,0.8823529411631833,-7.8125,1.2759903127693586,515.1142819871825,1.2834575789845075,1597.0,-72.9152175155134,1473.2718768361276,1.953125,59.244791666666664,42.05237009897746,2388.332554391986,2.889999999999997
9,47135,55795,51476,25.738,1508.0898350022676,50.78125,2378.7104744810463,8660,1,03-02,1.1845104875769252,234.91424827860533,0.7647058823414256,-15.625,1.274476501230815,512.2888714286933,1.53709620163267,3026.0,46.524750872755476,1501.3784069256017,-7.8125,55.338541666666664,-2.8254105584892386,2366.57662482038,4.341000000000001
10,55795,64224,60114,30.057,1406.6118956593384,56.640625,2104.31383206927,8429,1,03-02,1.104805896630449,133.43630893567615,0.8529411764577439,-9.765625,1.1274589988814638,237.8922290169171,1.4960951366699509,2795.0,-101.47793934292918,1458.7556049303728,5.859375,55.338541666666664,-274.39664241177616,2288.1867305299506,4.318999999999999
11,64224,71181,68334,34.167,1571.7130584751103,46.875,2385.7548485131833,6957,1,03-02,1.2344825606642817,298.53747175144804,0.7058823529305467,-19.53125,1.2782507685349507,519.3332454608303,1.2348242811499406,1323.0,165.1011628157719,1495.4715963789056,-9.765625,51.432291666666664,281.4410164439132,2289.593051687833,4.110000000000003
12,71181,78474,74029,37.0145,1628.2167554814998,44.921875,2317.153603417899,7293,1,03-02,1.2788626898432816,355.04116875783757,0.6764705882251072,-21.484375,1.2414952761086646,450.7320003655459,1.2944621938229863,1659.0,56.50369700638953,1535.5139032053164,-1.953125,49.479166666666664,-68.60124509528441,2269.0740946667843,2.8474999999999966
13,78474,86600,82919,41.4595,467.0814613663693,52.734375,1010.3859249106033,8126,1,03-02,0.36686335037885126,-806.094125357293,0.794117647046865,-13.671875,0.5413492445960082,-856.0356781417497,1.4423145189915791,2492.0,-1161.1352941151306,1222.3370917743266,7.8125,48.177083333333336,-1306.7676785072956,1904.4314589472285,4.445
1,0,11389,9141,4.5705,885.9619547330028,66.40625,1922.0330366202909,11389,0,03-04,0.7305468771797332,-326.7760397849081,0.9714285714143608,-1.953125,0.9429420325586454,-116.30333004263957,1.6884265665148712,4643.666666666667,0.0,885.9619547330028,0.0,66.40625,0.0,1922.0330366202909,0.0
2,11389,15799,13638,6.819,1381.6067997945402,72.265625,1959.9541406299722,4410,0,03-04,1.1392459097008987,168.86880527662925,1.0571428571273926,3.90625,0.961545980675288,-78.38222603295822,0.6537853330696797,-2335.333333333333,495.64484506153735,1133.7843772637716,5.859375,69.3359375,37.92110400968136,1940.9935886251315,2.2485
3,15799,20236,17960,8.98,1370.6452290261898,66.40625,2233.0219227385287,4437,0,03-04,1.1302072131168943,157.90723450827886,0.9714285714143608,-1.953125,1.095511986764595,194.68555607559824,0.6577881004150042,-2308.333333333333,-10.961570768350384,1212.737994517911,-5.859375,68.359375,273.06778210855646,2038.3363666629305,2.1610000000000005
4,20236,24520,22513,11.2565,1387.4315417957544,68.359375,2231.5097275167327,4284,0,03-04,1.1440488778832594,174.69354727784344,0.9999999999853714,0.0,1.0947701095913633,193.17336085380225,0.6351057521248317,-2461.333333333333,16.786312769564574,1379.894523538828,1.953125,69.01041666666667,-1.5121952217959915,2141.495263628411,2.2765000000000004
5,24520,29099,26527,13.2635,1442.405936917694,64.453125,2128.402675455004,4579,0,03-04,1.189379687481377,229.667942399783,0.9428571428433502,-3.90625,1.0441861854912993,90.06630879207364,0.6788396916385632,-2166.333333333333,54.97439512193955,1400.1609025798791,-3.90625,66.40625,-103.10705206172861,2197.6447752367553,2.0069999999999997
6,29099,35397,31671,15.8355,1249.7378825432831,58.59375,2058.1639516113833,6298,1,03-04,1.0305093830584982,36.99988802537223,0.8571428571303183,-9.765625,1.009727337092996,19.827584948452795,0.9336825459575607,-447.33333333333303,-192.66805437441076,1359.8584537522438,-5.859375,63.802083333333336,-70.23872384362085,2139.35878486104,2.571999999999999
7,35397,42478,39123,19.5615,1293.8881714829574,60.546875,2166.4853953076467,7081,1,03-04,1.0669148466781884,81.15017696504651,0.8857142857013289,-7.8125,1.0628694217203478,128.14902864471628,1.0497627989719733,335.66666666666697,44.15028893967428,1328.677330314645,1.953125,61.197916666666664,108.32144369626349,2117.6840074580114,3.725999999999999
8,42478,47946,45834,22.917,1453.44577460293,58.59375,2356.5398942698366,5468,1,03-04,1.1984829214322645,240.70778008501907,0.8571428571303183,-9.765625,1.1561094296358447,318.20352760690616,0.8106345127494351,-1277.333333333333,159.55760311997255,1332.3572762097235,-1.953125,59.244791666666664,190.05449896218988,2193.7297470629555,3.355500000000003
9,47946,53344,50058,25.029,1549.9426902185958,58.59375,2064.398496223714,5398,1,03-04,1.2780523882518027,337.20469570068485,0.8571428571303183,-9.765625,1.012785980756669,26.06212956078366,0.800256967780075,-1347.333333333333,96.49691561566578,1432.4255454348277,0.0,59.244791666666664,-292.1413980461225,2195.807928600399,2.1119999999999983
10,53344,60863,56630,28.315,1463.3133639120895,52.734375,2157.519453748748,7519,1,03-04,1.2066195423295705,250.57536939417855,0.7714285714172865,-15.625,1.0584707651955798,119.18308708581776,1.1146965803516828,773.666666666667,-86.6293263065063,1488.9006095778716,-5.859375,56.640625,93.1209575250341,2192.8192814141,3.2860000000000014
11,60863,68040,65097,32.5485,1387.6462701775333,58.59375,2497.692367322677,7177,1,03-04,1.1442259387016303,174.9082756596224,0.8571428571303183,-9.765625,1.225358291286613,459.35600065974654,1.0639948606442384,431.66666666666697,-75.66709373455615,1466.9674414360727,5.859375,56.640625,340.1729135739288,2239.8701057650464,4.233499999999996
12,68040,73530,70983,35.4915,1436.3775365059034,41.015625,2152.402529113182,5490,1,03-04,1.1844087865621045,223.63954198799252,0.5999999999912228,-27.34375,1.0559604216039864,114.06616245025157,0.8138960268826625,-1255.333333333333,48.73126632837011,1429.1123901985086,-17.578125,50.78125,-345.289838209495,2269.204783394869,2.943000000000005
13,73530,78767,76077,38.0385,751.2286586657431,41.015625,1101.3395452144819,5237,1,03-04,0.6194484398616974,-461.50933585216785,0.5999999999912228,-27.34375,0.5403129548323781,-936.9968214484486,0.7763886143505471,-1508.333333333333,-685.1488778401604,1191.75082178306,0.0,46.875,-1051.0629838987002,1917.144813883447,2.546999999999997
14,78767,82600,81458,40.729,477.9462633674847,64.453125,750.9953055068275,3833,1,03-04,0.3941051286655568,-734.7917311504262,0.9428571428433502,-3.90625,0.3684354151694569,-1287.341061156103,0.5682447123936695,-2912.333333333333,-273.2823952982584,888.5174861797103,23.4375,48.828125,-350.3442397076543,1334.9124599448305,2.6905
1,0,5654,3165,1.5825,562.9241197509481,41.015625,1431.710758630995,5654,0,04-01,0.8389754384586077,-108.0420300857279,0.9843749999763751,-0.6510416666666643,0.9893298923650061,-15.441267886148125,1.0988598082402632,508.66666666666697,0.0,562.9241197509481,0.0,41.015625,0.0,1431.710758630995,0.0
2,5654,10553,8144,4.072,587.3376402092032,48.828125,1068.8645639057092,4899,0,04-01,0.8753610600941573,-83.6285096274728,1.1718749999718752,7.161458333333336,0.738598671265661,-378.28746261143397,0.9521249028243809,-246.33333333333303,24.413520458255107,575.1308799800756,7.8125,44.921875,-362.84619472528584,1250.2876612683522,2.4895
3,10553,15436,12963,6.4815,862.6366895498769,35.15625,1840.880757014726,4883,0,04-01,1.2856635014427642,191.67053971320092,0.8437499999797501,-6.510416666666664,1.2720714363672603,393.7287304975828,0.9490152889347728,-262.33333333333303,275.2990493406737,670.966149836676,-13.671875,41.666666666666664,772.0161931090167,1447.1520265171432,2.4094999999999995
4,15436,20290,17910,8.955,801.4985959001223,33.203125,2149.688282035497,4854,0,04-01,1.1945440110414296,130.5324460634463,0.7968749999808751,-8.463541666666664,1.4854612664349167,702.536255518354,0.9433791137598581,-291.33333333333303,-61.13809364975464,750.4909752197341,-1.953125,39.0625,308.8075250207712,1686.4778676519775,2.4735000000000005
5,20290,25057,22671,11.3355,748.6832271910251,52.734375,1293.3699100514384,4767,0,04-01,1.1158286112826272,77.71707735434916,1.2656249999696252,11.067708333333336,0.8937346500929101,-153.7821164657048,0.9264705882351141,-378.33333333333303,-52.81536870909713,804.2728375470082,19.53125,40.364583333333336,-856.3183719840588,1761.3129830338873,2.3804999999999996
6,25057,29875,27443,13.7215,929.5039078515365,37.109375,1954.530724507349,4818,0,04-01,1.3853216113456803,258.5377580148605,0.8906249999786251,-4.557291666666664,1.3506049735562076,507.37869799020586,0.9363824825082399,-327.33333333333303,180.82068066051136,826.561910314228,-15.625,41.015625,661.1608144559107,1799.1963055314282,2.386000000000001
7,29875,36496,32308,16.154,870.045958394964,54.6875,1452.409281959613,6621,0,04-01,1.2967061879432378,199.07980855828805,1.3124999999685,13.020833333333336,1.003632828718154,5.257255442469841,1.2867970976934529,1475.666666666667,-59.457949456572464,849.411031145842,17.578125,48.177083333333336,-502.121442547736,1566.7699721728002,2.432499999999999
8,36496,42976,40685,20.3425,955.5324115854734,44.921875,1765.7024241792299,6480,0,04-01,1.4241141849207166,284.5662617487974,1.0781249999741251,3.2552083333333357,1.2201222759073356,318.55039766208665,1.2593936252912814,1334.666666666667,85.48645319050934,918.3607592773246,-9.765625,45.572916666666664,313.2931422196168,1724.2141435487308,4.188500000000001
9,42976,48328,45267,22.6335,790.7345120317368,54.6875,1202.7490683520437,5352,0,04-01,1.1785013479786364,119.76836219506083,1.3124999999685,13.020833333333336,0.8311145244676645,-244.40295816509956,1.0401658460739103,206.66666666666697,-164.79789955373656,872.104294004058,9.765625,51.432291666666664,-562.9533558271862,1473.6202581636287,2.2910000000000004
10,48328,54790,51389,25.6945,815.8866302799165,39.0625,2005.8061778667295,6462,1,04-01,1.2159877670092605,144.92048044324054,0.9374999999775001,-2.6041666666666643,1.3860369478199963,558.6541513495863,1.2558953096654724,1316.666666666667,25.152118248179704,854.0511846323756,-15.625,46.223958333333336,803.0571095146859,1658.0858901326676,3.061
11,54790,60811,58191,29.0955,800.251956955857,52.734375,2017.685553924738,6021,1,04-01,1.1926860351292814,129.28580711918107,1.2656249999696252,11.067708333333336,1.394245744021312,570.5335274075949,1.170186576833149,875.666666666667,-15.634673324059463,802.2910330891701,13.671875,48.828125,11.879376058008575,1742.0802667145038,3.401
12,60811,69600,63432,31.716,565.0866373476638,42.96875,1165.0018546001297,8789,1,04-01,0.8421984290628861,-105.8795124890122,1.0312499999752502,1.3020833333333357,0.8050307315694616,-282.1501719170135,1.7081497797353509,3643.666666666667,-235.16531960819327,727.0750748611458,-9.765625,44.921875,-852.6836993246084,1729.4978621305324,2.6205
1,0,8564,6470,3.235,473.9764945517246,56.640625,1193.5284837181546,8564,0,05-05,0.8368612604674636,-92.39754728900834,0.966666666650169,-1.953125,1.0505734600334897,57.455158889391896,1.4388440860212635,2612.0,0.0,473.9764945517246,0.0,56.640625,0.0,1193.5284837181546,0.0
2,8564,13058,10658,5.329,726.8791006409095,64.453125,1455.2165154174797,4494,0,05-05,1.2833905633761866,160.50505880017658,1.0999999999812267,5.859375,1.2809177749469118,319.14319058871706,0.7550403225805182,-1458.0,252.90260608918493,600.4277975963171,7.8125,60.546875,261.68803169932517,1324.3724995678172,2.094
3,13058,17856,15459,7.7295,498.2665303295648,54.6875,759.474975350654,4798,0,05-05,0.879748176151053,-68.10751151116818,0.9333333333174045,-3.90625,0.668508765016958,-376.59834947810873,0.8061155913977139,-1154.0,-228.61257031134477,566.374041840733,-9.765625,58.59375,-695.7415400668258,1136.0733248287627,2.4005
4,17856,23282,20253,10.1265,499.99692017245286,58.59375,889.965163349837,5426,0,05-05,0.8828033829844404,-66.3771216682801,0.9999999999829334,0.0,0.7833694743983146,-246.1081614789257,0.9116263440858683,-526.0,1.730389842888087,575.0475170476424,3.90625,59.244791666666664,130.49018799918304,1034.885551372657,2.3970000000000002
5,23282,29313,26312,13.156,513.0728225604803,54.6875,825.3189995185008,6031,0,05-05,0.9058904269201181,-53.30121928025267,0.9333333333174045,-3.90625,0.7264663129399438,-310.75432531026183,1.0132728494621952,79.0,13.07590238802743,503.7787576874993,-3.90625,55.989583333333336,-64.64616383133614,824.9197127396639,3.0295000000000005
6,29313,37085,32315,16.1575,452.9707432198573,54.6875,1075.5890236804346,7772,1,05-05,0.7997731353416,-113.40329862087566,0.9333333333174045,-3.90625,0.9467602135994246,-60.484301148328086,1.3057795698922536,1820.0,-60.10207934062299,488.6801619842634,0.0,55.989583333333336,250.27002416193375,930.2910621829242,3.0014999999999983
7,37085,46153,41855,20.9275,533.8721745285053,52.734375,1321.4703687748465,9068,1,05-05,0.9426141296879741,-32.50186731222766,0.8999999999846401,-5.859375,1.163191089776591,185.39704394608384,1.523521505376088,3116.0,80.901431308648,499.971913436281,-1.953125,54.036458333333336,245.88134509441193,1074.1261306579274,4.77
8,46153,52545,50451,25.2255,344.12192135775973,42.96875,586.7719142358471,6392,1,05-05,0.6075877351983601,-222.25212048297323,0.7333333333208178,-15.625,0.5164912346866107,-549.3014105929155,1.0739247311826152,440.0,-189.75025317074557,443.65494636870744,-9.765625,50.130208333333336,-734.6984545389994,994.6104355637095,4.298000000000002
9,52545,57800,54639,27.3195,759.4165950401302,35.15625,1050.7155006035143,5255,1,05-05,1.3408393374997594,193.04255319939728,0.5999999999897601,-23.4375,0.9248659198656575,-85.35782422524835,0.8828965053761957,-697.0,415.2946736823705,545.8035636421317,-7.8125,43.619791666666664,463.9435863676672,986.319261204736,2.094000000000001
1,0,6636,1919,0.9595,983.8673094222032,41.015625,2062.3418954562385,6636,0,06-02,0.7978338433408224,-249.3058852640396,0.8513513513336801,-7.161458333333336,0.9145942213338026,-192.58367410148094,0.8465365480289773,-1203.0,0.0,983.8673094222032,0.0,41.015625,0.0,2062.3418954562385,0.0
2,6636,15534,11353,5.6765,1229.685575444986,62.5,2108.390412919042,8898,0,06-02,0.9971718333991672,-3.48761924125688,1.2972972972703696,14.322916666666664,0.9350155239632348,-146.53515663867756,1.1350937619592887,1059.0,245.81826602278272,1106.7764424335946,21.484375,51.7578125,46.048517462803375,2085.36615418764,4.717
3,15534,23517,19716,9.858,1485.9666991915392,41.015625,2594.0444002978784,7983,0,06-02,1.2049943232575777,252.79350450529637,0.8513513513336801,-7.161458333333336,1.1503902547016323,339.11883074015896,1.018369690011351,144.0,256.28112374655325,1233.1731946862428,-21.484375,48.177083333333336,485.6539873788365,2254.9255695577194,4.181500000000001
4,23517,31200,27318,13.659,1319.6694033852036,50.78125,2226.943941436398,7683,0,06-02,1.0701411683862443,86.4962086989608,1.0540540540321752,2.6041666666666643,0.9875908861471656,-27.98162812132159,0.9800995024874372,-156.0,-166.29729580633557,1345.107226007243,9.765625,51.432291666666664,-367.10045886148055,2309.7929182177727,3.801
5,31200,38393,35083,17.5415,1335.0630283722926,46.875,2150.66435531188,7193,0,06-02,1.0826241067548432,101.88983368604977,0.9729729729527772,-1.3020833333333357,0.95376290213107,-104.26121424583926,0.917591529531711,-646.0,15.39362498708897,1380.2330436496784,-3.90625,46.223958333333336,-76.27958612451766,2323.884232348719,3.8824999999999985
6,38393,45316,41703,20.8515,1277.964399472149,39.0625,2097.6403018300725,6923,0,06-02,1.036321909183459,44.791204785906075,0.810810810793981,-9.114583333333336,0.9302481333078204,-157.2852677276469,0.8831483607601883,-916.0,-57.098628900143694,1310.8989437432149,-7.8125,45.572916666666664,-53.02405348180764,2158.416199526117,3.3100000000000023
7,45316,52262,48930,24.465,1332.8526884652529,60.546875,2047.7845550574762,6946,0,06-02,1.0808317065335586,99.67949377901004,1.2567567567306706,12.369791666666664,0.9081384249229211,-207.14101450024327,0.8860824084703551,-893.0,54.88828899310397,1315.2933721032314,21.484375,48.828125,-49.855746772596376,2098.696404066476,3.6134999999999984
8,52262,57777,55595,27.7975,1457.2871466610873,41.015625,2108.991024720944,5515,0,06-02,1.181737612315425,224.11395197484444,0.8513513513336801,-7.161458333333336,0.935281879451864,-145.93454483677533,0.7035336139812853,-2324.0,124.4344581958344,1356.034744866163,-19.53125,46.875,61.20646966346794,2084.8052938694977,3.3324999999999996
9,57777,64763,59959,29.9795,1381.873622833746,44.921875,1834.6563026566862,6986,1,06-02,1.1205835715430195,148.7004281475031,0.9324324324130782,-3.2552083333333357,0.813621667794437,-420.26926690103323,0.8911851001402102,-853.0,-75.41352382734135,1390.6711526533618,3.90625,48.828125,-274.3347220642579,1997.1439608117023,2.182000000000002
10,64763,72124,69568,34.784,1194.4567527504025,42.96875,1395.643173570747,7361,1,06-02,0.968604213825245,-38.716441935840294,0.8918918918733791,-5.208333333333336,0.6189309272163113,-859.2823959869725,0.9390228345451027,-478.0,-187.41687008334338,1344.5391740817452,-1.953125,42.96875,-439.0131290859392,1779.7635003161258,4.804499999999997
11,72124,77296,74681,37.3405,1179.5885258307087,44.921875,1791.6049113743861,5172,1,06-02,0.9565473292094026,-53.58466885553412,0.9324324324130782,-3.2552083333333357,0.7945295115550074,-463.3206581833333,0.6597780329122771,-2667.0,-14.868226919693825,1251.9729671382856,1.953125,44.270833333333336,395.96173780363915,1673.9681292006064,2.5564999999999998
12,77296,82129,79912,39.956,1116.1946094003092,39.0625,1265.8684386920684,4833,1,06-02,0.9051401816136607,-116.9785852859336,0.810810810793981,-9.114583333333336,0.5613792560522493,-989.0571308656511,0.6165327210102542,-3006.0,-63.393916430399486,1163.4132959938067,-5.859375,42.317708333333336,-525.7364726823178,1484.372174545734,2.6155000000000044
13,82129,86585,84346,42.173,1235.7088289656842,64.453125,1385.6148990743166,4456,1,06-02,1.002056186664911,2.5356342794414104,1.3378378378100686,16.276041666666664,0.6144836520459859,-869.3106704834029,0.568439852021869,-3383.0,119.51421956537502,1177.1639880655673,25.390625,49.479166666666664,119.74646038224819,1481.029416380257,2.2169999999999987
14,86585,91163,88825,44.4125,940.4828870582747,39.0625,834.7453950518459,4578,1,06-02,0.7626527166744002,-292.6903076279681,0.810810810793981,-9.114583333333336,0.37018756021078003,-1420.1801745058735,0.5840030616149274,-3261.0,-295.2259419074095,1097.462108474756,-25.390625,47.526041666666664,-550.8695040224707,1162.0762442727435,2.2394999999999996
15,91163,94800,93501,46.7505,1042.2237026321914,37.109375,2074.881358803633,3637,1,06-02,0.8451559822434512,-190.94949205405146,0.770270270254282,-11.067708333333336,0.9201551425086192,-180.04421075408663,0.4639622400815839,-4202.0,101.74081557391662,1072.80513955205,-1.953125,46.875,1240.135963751787,1431.747217643265,2.338000000000001
1,0,4924,1874,0.937,874.4382059920683,37.109375,1227.2792507584393,4924,0,06-03,0.859977280535956,-142.377267837938,0.8028169013910827,-9.114583333333336,0.7877505694343103,-330.6748763188284,0.8066841415463947,-1180.0,0.0,874.4382059920683,0.0,37.109375,0.0,1227.2792507584393,0.0
2,4924,11288,7975,3.9875,765.8141837055032,41.015625,944.0020099288778,6364,0,06-03,0.7531496160460484,-251.00129012450316,0.8873239436427757,-5.208333333333336,0.6059241369957573,-613.9521171483899,1.042595019659069,260.0,-108.62402228656515,820.1261948487858,3.90625,39.0625,-283.2772408295615,1085.6406303436586,3.0504999999999995
3,11288,18312,14602,7.301,1410.1940317924475,60.546875,2502.5811205444857,7024,0,06-03,1.3868731034150452,393.37855796244116,1.3098591549012402,14.322916666666664,1.6063252935680066,944.626993467218,1.1507208387940446,920.0,644.3798480869443,1016.8154738300063,19.53125,46.223958333333336,1558.579110615608,1557.9541270772677,3.3135000000000003
4,18312,25356,22023,11.0115,1617.0624429342724,64.453125,2161.972807926708,7044,0,06-03,1.5903204510074427,600.2469691042661,1.394366197152933,18.229166666666664,1.3876999138486803,604.0186808494402,1.153997378767832,940.0,206.86841114182494,1264.3568861440745,3.90625,55.338541666666664,-340.60831261777776,1869.5186461333572,3.7104999999999997
5,25356,32097,28689,14.3445,1349.0586418609712,64.453125,1726.8224720737746,6741,0,06-03,1.3267487332565744,332.24316803096485,1.394366197152933,18.229166666666664,1.1083910893526736,168.86834499650695,1.1043577981649566,637.0,-268.00380107330125,1458.7717055292303,0.0,63.151041666666664,-435.15033585293327,2130.458800181656,3.333
6,32097,39467,35506,17.753,1507.9528689607007,54.6875,2524.1337592288537,7370,0,06-03,1.4830152645880377,491.13739513069436,1.183098591523701,8.463541666666664,1.620159230209509,966.179632151586,1.2074049803405622,1266.0,158.8942270997295,1491.3579845853146,-9.765625,61.197916666666664,797.3112871550791,2137.643013076445,3.4085
7,39467,46441,43429,21.7145,1444.4311220723903,46.875,2200.4967578521696,6974,0,06-03,1.420544001587896,427.61564824238394,1.014084507020315,0.6510416666666643,1.4124271822938097,642.5426307749019,1.1425294888595767,870.0,-63.52174688831042,1433.8142109646876,-7.8125,55.338541666666664,-323.6370013766841,2150.4843297182656,3.961500000000001
8,46441,53257,49454,24.727,1266.953844586856,46.875,2136.8379183068473,6816,1,06-03,1.2460017350182677,250.13837075684955,1.014084507020315,0.6510416666666643,1.3715666470322831,578.8837912295796,1.1166448230666584,712.0,-177.4772774855344,1406.4459452066492,0.0,49.479166666666664,-63.65883954532228,2287.1561451292905,3.0124999999999993
9,53257,61181,57061,28.5305,1208.8641488442552,52.734375,1767.5649428110257,7924,1,06-03,1.1888726912167027,192.04867501424883,1.1408450703978543,6.510416666666664,1.1345423540331414,209.61081573375805,1.298165137614466,1820.0,-58.089695742600725,1306.7497051678338,5.859375,48.828125,-369.2729754958216,2034.9665396566809,3.8034999999999997
10,61181,69979,65301,32.6505,1175.4655771132498,46.875,2209.8957186778957,8798,1,06-03,1.1560264446847028,158.65010328324342,1.014084507020315,0.6510416666666643,1.418460069053674,651.941591600628,1.4413499344689642,2694.0,-33.398571731005404,1217.094523514787,-5.859375,48.828125,442.33077586687,2038.0995265985894,4.120000000000001
11,69979,79196,74658,37.329,1041.630983117901,41.015625,1595.2806984336262,9217,1,06-03,1.0244051255370834,24.815509287894656,0.8873239436427757,-5.208333333333336,1.02395871014852,37.3265713563585,1.5099934469198049,3113.0,-133.83459399534877,1141.9869030251352,-5.859375,46.875,-614.6150202442695,1857.5804533075159,4.6785
12,79196,87577,83734,41.867,1054.8725372233903,46.875,1634.3773695333916,8381,1,06-03,1.03742769890096,38.05706339338394,1.014084507020315,0.6510416666666643,1.0490535896576398,76.42324245612394,1.3730340760155024,2277.0,13.241554105489286,1090.6563658181803,5.859375,44.921875,39.096671099765445,1813.1845955483047,4.537999999999997
13,87577,94200,91421,45.7105,1097.3329220158605,48.828125,2170.715981685817,6623,1,06-03,1.0791858997596608,80.51744818585416,1.0563380281461614,2.6041666666666643,1.3933118722543527,612.7618546085494,1.0850262123196124,519.0,42.46038479247022,1064.612147452384,1.953125,45.572916666666664,536.3386121524254,1800.1246832176114,3.843500000000006
1,0,3877,1394,0.697,731.1481531977092,41.015625,964.1613334825615,3877,0,06-04,0.603729993571418,-479.90341121427923,0.8630136986119783,-6.510416666666664,0.5238587827925946,-876.3372229075239,0.7079123554472231,-1599.666666666667,0.0,731.1481531977092,0.0,41.015625,0.0,964.1613334825615,0.0
2,3877,9824,6360,3.18,1483.8572981474592,46.875,2469.800755463629,5947,0,06-04,1.22526351622914,272.80573373547077,0.9863013698422609,-0.6510416666666643,1.3419194200871862,629.3021990735433,1.085879488739911,470.33333333333303,752.70914494975,1107.5027256725843,5.859375,43.9453125,1505.6394219810672,1716.9810444730952,2.483
3,9824,16430,13288,6.644,1418.1492418907967,54.6875,2087.533580224066,6606,0,06-04,1.1710064901969646,207.09767747880824,1.1506849314826377,7.161458333333336,1.1342217971185893,247.03502383398063,1.2062081558123177,1129.333333333333,-65.70805625666253,1211.0515644119885,7.8125,47.526041666666664,-382.2671752395627,1840.4985563900855,3.464
4,16430,22511,19573,9.7865,1344.7499124340125,37.109375,2381.9332781701805,6081,0,06-04,1.1103985593593029,133.698348022024,0.7808219177917899,-10.416666666666664,1.2941782920171148,541.4347217800951,1.110346926354027,604.333333333333,-73.39932945678424,1415.5854841574228,-17.578125,46.223958333333336,294.39969794611443,2313.0892046192916,3.1425
5,22511,28592,25450,12.725,1250.0081839593654,58.59375,2004.2176256143043,6081,1,06-04,1.0321675977234377,38.95661954737693,1.2328767123028261,11.067708333333336,1.0889536526147812,163.71906922421886,1.110346926354027,604.333333333333,-94.74172847464706,1337.6357794280582,21.484375,50.130208333333336,-377.7156525558762,2157.8948280028503,2.9384999999999994
6,28592,35331,31735,15.8675,1052.7493694687835,46.875,1696.6962908025055,6739,1,06-04,0.8692853387948547,-158.302194943205,0.9863013698422609,-0.6510416666666643,0.9218677650741804,-143.80226558758,1.2304930006084178,1262.333333333333,-197.25881449058193,1215.835821954054,-11.71875,47.526041666666664,-307.52133481179885,2027.6157315289968,3.1425
7,35331,41539,38928,19.464,1051.5574582020356,44.921875,1798.0895103657153,6208,1,06-04,0.8683011434874273,-159.49410620995286,0.9452054794321667,-2.6041666666666643,0.9769578487969438,-42.40904602437013,1.1335362142420327,731.333333333333,-1.1919112667478657,1118.1050038767282,-1.953125,50.130208333333336,101.39321956320987,1833.0011422608416,3.596499999999999
8,41539,48480,44150,22.075,1082.2551044908196,37.109375,1942.387969521862,6941,1,06-04,0.893649070190832,-128.7964599211689,0.7808219177917899,-10.416666666666664,1.0553596810912826,101.88941313177656,1.2673767498476078,1464.333333333333,30.69764628878397,1062.1873107205463,-7.8125,42.96875,144.2984591561467,1812.3912568966944,2.6110000000000007
9,48480,57200,52811,26.4055,1118.6293391056424,46.875,2249.781306647562,8720,1,06-04,0.9236843186341581,-92.42222530634604,0.9863013698422609,-0.6510416666666643,1.2223760235156134,409.28275025747644,1.5922093730977005,3243.333333333333,36.37423461482285,1084.1473005994992,9.765625,42.96875,307.3933371256999,1996.7529288450467,4.330500000000001
1,0,4212,702,0.351,653.4635020351159,78.125,919.3815083793385,4212,0,07-01,0.798383447657024,-165.01977683546215,1.4117647058568417,22.786458333333336,0.6146357693538804,-576.4336625229331,0.6904163479400026,-1888.666666666667,0.0,653.4635020351159,0.0,78.125,0.0,919.3815083793385,0.0
2,4212,11818,7723,3.8615,824.2998313697486,33.203125,1515.87366795681,7606,0,07-01,1.0071065013156895,5.816552499170598,0.5999999999891578,-22.135416666666664,1.0134097430242173,20.05849705453852,1.2467489891813057,1505.333333333333,170.83632933463275,738.8816667024323,-44.921875,55.6640625,596.4921595774716,1217.6275881680742,3.5105
3,11818,18302,15913,7.9565,977.6865032068696,54.6875,2052.1903363706665,6484,0,07-01,1.1945100510236213,159.20322433629156,0.9882352940997892,-0.6510416666666643,1.371954487619897,556.3751654683949,1.0628346628781995,383.33333333333303,153.38667183712096,818.483278870578,21.484375,55.338541666666664,536.3166684138564,1495.8151709022716,4.095000000000001
4,18302,23264,20692,10.346,1288.0053401112714,58.59375,2011.5429110163006,4962,0,07-01,1.5736489349996392,469.52206124069335,1.0588235293926314,3.2552083333333357,1.344780391418011,515.7277401140291,0.8133537318324532,-1138.666666666667,310.3188369044018,1029.9972248959632,3.90625,48.828125,-40.64742535436585,1859.8689717812592,2.3895
5,23264,28461,25837,12.9185,1226.5288369274992,44.921875,1930.4213673005268,5197,0,07-01,1.4985386611910791,408.0455580569212,0.811764705867684,-10.416666666666664,1.2905480602491894,434.6061963982552,0.8518741121187544,-903.666666666667,-61.47650318377214,1164.07356008188,-13.671875,52.734375,-81.1215437157739,1998.0515382291644,2.5725
6,28461,35131,31086,15.543,1284.1333069182756,46.875,2315.1957505695245,6670,0,07-01,1.5689181930370983,465.65002804769756,0.847058823514105,-8.463541666666664,1.5477819690593573,819.380579667253,1.0933231340835274,569.333333333333,57.60446999077635,1266.2224946523486,1.953125,50.130208333333336,384.7743832689978,2085.720009628784,2.6244999999999994
7,35131,41443,39176,19.588,1365.8233033297072,46.875,2281.955095595044,6312,0,07-01,1.6687247480641667,547.3400244591292,0.847058823514105,-8.463541666666664,1.5255595343487856,786.1399246927724,1.0346410228388643,211.33333333333303,81.6899964114316,1292.1618157251607,0.0,46.223958333333336,-33.24065497448055,2175.857404488365,4.045000000000002
8,41443,46036,43710,21.855,1472.2278682522247,62.5,1656.1168499122107,4593,0,07-01,1.7987268723216283,653.7445893816466,1.1294117646854733,7.161458333333336,1.107166769081596,160.3016790099391,0.7528685389573675,-1507.666666666667,106.40456492251747,1374.0614928334026,15.625,52.083333333333336,-625.8382456828333,2084.4225653589265,2.2669999999999995
9,46036,50858,48363,24.1815,1413.5002698114488,54.6875,2167.920035924152,4822,0,07-01,1.7269751335179448,595.0169909408708,0.9882352940997892,-0.6510416666666643,1.4493234713049605,672.1048650218806,0.790405420172529,-1278.666666666667,-58.727598440775864,1417.1838137977936,-7.8125,54.6875,511.80318601194153,2035.3306604771358,2.3264999999999993
10,50858,55497,53354,26.677,1378.5179780064313,54.6875,2042.1272920782776,4639,0,07-01,1.6842347468685723,560.0346991358533,0.9882352940997892,-0.6510416666666643,1.3652270225639622,546.312121176006,0.7604086985027712,-1461.666666666667,-34.98229180501744,1421.415372023368,0.0,57.291666666666664,-125.79274384587461,1955.3880593048805,2.4955
11,55497,59657,57641,28.8205,1385.9418744278182,58.59375,1822.7398868988191,4160,0,07-01,1.6933050560771148,567.4585955572402,1.0588235293926314,3.2552083333333357,1.2185595669538027,326.92471599654755,0.6818926893234594,-1940.666666666667,7.423896421386871,1392.6533740818995,3.90625,55.989583333333336,-219.38740517945848,2010.9290716337498,2.1434999999999995
12,59657,63902,61673,30.8365,1492.5656156361033,60.546875,1772.6051873944193,4245,0,07-01,1.823574963796286,674.0823367655253,1.0941176470390523,5.208333333333336,1.1850429263422992,276.79001649214774,0.6958255928312704,-1855.666666666667,106.62374120828508,1419.0084893567844,1.953125,57.942708333333336,-50.134699504399805,1879.1574554571723,2.016000000000002
13,63902,81200,66131,33.0655,776.5370701497344,68.359375,1556.838209930618,17298,0,07-01,0.9487512942479732,-41.94620872084363,1.2352941176247365,13.020833333333336,1.0407958417686702,61.023039028346375,2.8354278220954807,11197.333333333332,-716.0285454863689,1218.3481867378853,7.8125,62.5,-215.76697746380137,1717.3944280746189,2.228999999999999
1,0,3990,1583,0.7915,935.3866955972571,41.015625,1347.3687361185966,3990,0,07-02,1.0760217153349096,66.0857490963366,0.9843749999763751,-0.6510416666666643,0.9688820123100098,-43.27400365652761,0.9334061135368994,-284.66666666666697,0.0,935.3866955972571,0.0,41.015625,0.0,1347.3687361185966,0.0
2,3990,8444,6397,3.1985,457.1778113883338,42.96875,880.673732187144,4454,0,07-02,0.5259143145167664,-412.12313511258674,1.0312499999752502,1.3020833333333357,0.6332853917095351,-509.9690075879803,1.0419525888955765,179.33333333333303,-478.20888420892334,696.2822534927955,1.953125,41.9921875,-466.6950039314527,1114.0212341528704,2.407
3,8444,12824,10492,5.246,1215.338332517171,41.015625,1943.885751019632,4380,0,07-02,1.3980639701448732,346.0373860162505,0.9843749999763751,-0.6510416666666643,1.3978325959782976,553.2430112445077,1.024641297566822,105.33333333333303,758.1605211288372,869.3009465009205,-1.953125,41.666666666666664,1063.212018832488,1390.6427397751243,2.0475000000000003
4,12824,17475,15156,7.578,1465.6250203960012,52.734375,2043.138658658696,4651,0,07-02,1.685981162557912,596.3240738950807,1.2656249999696252,11.067708333333336,1.4692045629114026,652.4959188835717,1.0880380536491527,376.33333333333303,250.2866878788302,1046.0470547671687,11.71875,45.572916666666664,99.252907639064,1622.5660472884908,2.332
5,17475,23784,19794,9.897,1258.8359794805792,44.921875,1802.7998423894169,6309,0,07-02,1.4481014711259124,389.5350329796587,1.0781249999741251,3.2552083333333357,1.2963788547730417,412.1571026142926,1.475904553960977,2034.333333333333,-206.789040915422,1313.2664441312506,-7.8125,46.223958333333336,-240.33881626927905,1929.941417355915,2.319
6,23784,30308,27775,13.8875,1560.6091614789964,46.875,2363.097881260085,6524,0,07-02,1.795246131686512,691.3082149780759,1.1249999999730003,5.208333333333336,1.6992846643275998,972.4551414849609,1.5262008733620882,2249.333333333333,301.77318199841716,1428.3567204518592,1.953125,48.177083333333336,560.2980388706683,2069.678794102733,3.990499999999999
7,30308,35433,32842,16.421,1269.4064914884862,52.734375,1993.8273083313961,5125,0,07-02,1.4602612554335712,400.1055449875656,1.2656249999696252,11.067708333333336,1.4337451678296447,603.1845685562719,1.1989238927009045,850.333333333333,-291.20266999051023,1362.9505441493538,5.859375,48.177083333333336,-369.27057292868903,2053.241677326966,2.5335
8,35433,40619,38024,19.012,1318.1699789083955,44.921875,2042.696606424784,5186,0,07-02,1.516356313901107,448.86903240747495,1.0781249999741251,3.2552083333333357,1.4688866867083576,652.0538666496598,1.2131940112286617,911.333333333333,48.763487419909325,1382.728543958626,-7.8125,48.177083333333336,48.8692980933879,2133.207265338755,2.591000000000001
9,40619,45416,43215,21.6075,1300.9879259707627,48.828125,2122.764116590721,4797,0,07-02,1.4965909460998021,431.6869794698422,1.1718749999718752,7.161458333333336,1.5264625887540744,732.1213768155969,1.1221927635680466,522.333333333333,-17.18205293763276,1296.188132122548,3.90625,48.828125,80.06751016593716,2053.0960104489673,2.5955000000000013
10,45416,49733,47617,23.8085,1379.8292586894804,62.5,1787.0258149757367,4317,0,07-02,1.5872860420110355,510.5283121885599,1.4999999999640001,20.833333333333336,1.2850358786351015,396.38307520061244,1.0099033063004499,42.33333333333303,78.8413327187177,1332.9957211895462,13.671875,52.083333333333336,-335.7383016149845,1984.162179330414,2.200999999999997
11,49733,54073,51849,25.9245,1168.6780836974158,62.5,2197.675836248606,4340,0,07-02,1.344388371369194,299.37713719649526,1.4999999999640001,20.833333333333336,1.5803310033477067,807.0330964734819,1.015283842794522,65.33333333333303,-211.15117499206463,1283.165089452553,0.0,57.942708333333336,410.6500212728695,2035.8219226050212,2.1159999999999997
12,54073,58749,56297,28.1485,1182.0183502279924,58.59375,1950.716152526172,4676,0,07-02,1.3597343416965681,312.7174037270719,1.40624999996625,16.927083333333336,1.4027442827193795,560.0734127510477,1.0938864628818399,401.33333333333303,13.340266530576628,1243.5085642049628,-3.90625,61.197916666666664,-246.9596837224342,1978.4726012501715,2.224
13,58749,63472,61201,30.6005,1319.3660770825527,46.875,2333.93617509176,4723,0,07-02,1.5177322449626918,450.06513058163216,1.1249999999730003,5.208333333333336,1.678314716163185,943.2934353166359,1.1048814722392921,448.33333333333303,137.34772685456028,1223.354170335987,-11.71875,55.989583333333336,383.2200225655881,2160.7760546221793,2.4520000000000017
14,63472,69200,65743,32.8715,265.3508796968604,33.203125,1052.8495958418325,5728,0,07-02,0.30524627951302263,-603.9500668040602,0.7968749999808751,-8.463541666666664,0.7570956693099536,-337.79314393329173,1.3399875233933232,1453.333333333333,-1054.0151973856923,922.2451023358018,-13.671875,46.223958333333336,-1281.0865792499276,1779.1673078199217,2.2709999999999972
1,0,4039,1894,0.947,1114.991540766186,44.921875,1819.3190022280862,4039,0,07-03,1.0728744765522558,75.73525763770385,0.958333333312889,-1.953125,1.0742472557537779,125.74334496431038,0.8017070265976971,-999.0,0.0,1114.991540766186,0.0,44.921875,0.0,1819.3190022280862,0.0
2,4039,9373,6185,3.0925,788.6479867450316,42.96875,1244.7259234605744,5334,0,07-03,0.758858040646335,-250.60829638345058,0.9166666666471112,-3.90625,0.7349691867152129,-448.8497338032014,1.058753473600425,296.0,-326.34355402115443,951.8197637556088,-1.953125,43.9453125,-574.5930787675118,1532.0224628443302,2.1454999999999997
3,9373,15114,12561,6.2805,1214.1293218742292,52.734375,2016.6820461026668,5741,0,07-03,1.1682674827985229,174.87303874574695,1.124999999976,5.859375,1.1907835575292378,323.106388838891,1.1395394998012822,703.0,425.48133512919753,1039.2562831284822,9.765625,46.875,771.9561226420924,1693.5756572637758,3.188
4,15114,20982,17668,8.834,1105.388774071943,54.6875,1817.4409660916601,5868,0,07-03,1.0636344393736241,66.13249094346088,1.1666666666417778,7.8125,1.073138337986585,123.86530882788429,1.1647479158393876,830.0,-108.74054780228607,1036.0553608970679,1.953125,50.130208333333336,-199.24108001100672,1692.9496452183005,2.5534999999999997
5,20982,27601,24297,12.1485,846.9798212814967,56.640625,1339.2166791362085,6619,0,07-03,0.8149864812277209,-192.2764618469855,1.2083333333075557,9.765625,0.7907628297510618,-354.3589781275673,1.313815005954483,1581.0,-258.4089527904464,1055.4993057425563,1.953125,54.6875,-478.2242869554516,1724.4465637768453,3.3145000000000007
6,27601,33852,30906,15.453,1136.5624187816425,54.6875,1820.7772384682562,6251,0,07-03,1.0936305483370714,97.30613565316025,1.1666666666417778,7.8125,1.0751082956688918,127.20158120448036,1.2407701468834376,1213.0,289.58259750014577,1029.6436713783608,-1.953125,55.338541666666664,481.56055933204766,1659.1449612320414,3.304499999999999
7,33852,39835,36798,18.399,866.6717941645013,42.96875,1755.0534744257636,5983,0,07-03,0.8339346205872509,-172.5844889639809,0.9166666666471112,-3.90625,1.0363006027497337,61.47781716198779,1.1875744342990893,945.0,-269.89062461714116,950.0713447425469,-11.71875,51.432291666666664,-65.72376404249258,1638.3491306767428,2.9460000000000015
8,39835,45395,42872,21.436,1041.1390078915354,37.109375,2142.0670582580647,5560,0,07-03,1.001811607774344,1.8827247630531474,0.7916666666497778,-9.765625,1.264819229698677,448.4914009942888,1.1036125446603604,522.0,174.46721372703405,1014.7910736125597,-5.859375,44.921875,387.01358383230104,1905.9659237173612,3.036999999999999
9,45395,51326,47918,23.959,1166.5559770753348,33.203125,2133.330657027254,5931,1,07-03,1.122491146805982,127.29969394685259,0.7083333333182222,-13.671875,1.2596606758464564,439.75499976347805,1.1772528781260068,893.0,125.41696918379944,1024.7889263771237,-3.90625,37.760416666666664,-8.73640123081077,2010.1503965703607,2.5229999999999997
10,51326,58173,54735,27.3675,899.7658433908435,33.203125,2084.3536316237364,6847,1,07-03,0.8657785937857454,-139.49043973763867,0.7083333333182222,-13.671875,1.2307413741350592,390.7779743599606,1.3590710599441524,1809.0,-266.79013368449125,1035.8202761192379,0.0,34.505208333333336,-48.97702540351747,2119.917115636352,3.4085
11,58173,65297,61611,30.8055,939.730460517183,41.015625,1786.6006148180484,7124,1,07-03,0.9042336099113109,-99.52582261129919,0.8749999999813334,-5.859375,1.0549281380812436,93.02495755427253,1.4140531957123035,2086.0,39.964617126339476,1002.0174269944538,7.8125,35.807291666666664,-297.75301680568805,2001.4283011563464,3.437999999999999
12,65297,71212,68984,34.492,1087.5972808278705,37.109375,1818.3154822714814,5915,1,07-03,1.0465149920025698,48.340997699388254,0.7916666666497778,-9.765625,1.0736547106541243,124.73982500770558,1.1740770146881352,877.0,147.86682031068744,975.6978615786323,-3.90625,37.109375,31.714867453433044,1896.423242904422,3.6864999999999988
13,71212,75783,73441,36.7205,712.7682988648155,39.0625,961.2271198265306,4571,1,07-03,0.6858445894774646,-326.4879842636667,0.8333333333155556,-7.8125,0.567572588625281,-732.3485374372452,0.9073044859069258,-467.0,-374.82898196305496,913.365346736623,1.953125,39.0625,-857.0883624449508,1522.0477389720202,2.228500000000004
14,75783,80825,78125,39.0625,1193.9196857815223,33.203125,1699.4189580540967,5042,1,07-03,1.1488212341486228,154.66340265304007,0.7083333333182222,-13.671875,1.0034502744322378,5.843300790320882,1.0007939658592693,4.0,481.15138691670677,998.0950884914027,-5.859375,36.458333333333336,738.1918382275661,1492.9871867173697,2.3419999999999987
15,80825,84200,83525,41.7625,613.8167622472596,37.109375,752.3754853896083,3375,1,07-03,0.5906307926269072,-425.4395208812226,0.7916666666497778,-9.765625,0.4442526568932497,-941.2001718741675,0.6699086939260281,-1663.0,-580.1029235342627,840.1682489645324,3.90625,36.458333333333336,-947.0434726644884,1137.673854423412,2.700000000000003
1,0,5347,3323,1.6615,470.3000873273104,35.15625,846.5424494490359,5347,0,07-04,0.7183623857944749,-184.38353284367383,0.6666666666540247,-17.578125,0.7003077065973334,-362.27253498335006,1.076793985365964,381.33333333333303,0.0,470.3000873273104,0.0,35.15625,0.0,846.5424494490359,0.0
2,5347,9546,7371,3.6855,701.0621625588607,56.640625,1045.7136472794193,4199,0,07-04,1.070841152822325,46.37854238787645,1.0740740740537065,3.90625,0.8650733658547276,-163.1013371529666,0.8456064979524375,-766.666666666667,230.76207523155028,585.6811249430855,21.484375,45.8984375,199.17119783038345,946.1280483642277,2.024
3,9546,14897,11722,5.861,792.6886106267817,66.40625,1734.188856568702,5351,0,07-04,1.210796461378618,138.0049904557975,1.25925925923538,13.671875,1.4346189275454566,525.3738721363161,1.0775995166809937,385.33333333333303,91.62644806792105,654.6836201709842,9.765625,52.734375,688.4752092892827,1208.8149844323857,2.1754999999999995
4,14897,21096,18072,9.036,868.5195572986322,54.6875,1784.235750063002,6199,0,07-04,1.3266248467778583,213.83593712764798,1.0370370370173718,1.953125,1.4760205432921034,575.420765630616,1.2483721554672922,1233.333333333333,75.83094667185048,787.4234434947581,-11.71875,59.244791666666664,50.046893494299866,1521.3794179703746,3.175
5,21096,27146,24121,12.0605,813.5439798216997,58.59375,1784.235704841885,6050,0,07-04,1.2426521066893093,158.8603596507155,1.1111111110900411,5.859375,1.4760205058826426,575.4207204094992,1.2183661139824356,1084.333333333333,-54.97557747693247,824.9173825823713,3.90625,59.895833333333336,-4.5221116806715145e-05,1767.553437157863,3.0244999999999997
6,27146,32689,30172,15.086,979.778946888188,46.875,1852.6284451076833,5543,0,07-04,1.4965685969519167,325.09532671720376,0.888888888872033,-5.859375,1.5325988418120706,643.8134606752974,1.1162650198024198,577.333333333333,166.23496706648825,887.2808280028399,-11.71875,53.385416666666664,68.39274026579824,1807.03330000419,3.025500000000001
7,32689,37851,35206,17.603,884.0346826731524,37.109375,1300.2606514806364,5162,0,07-04,1.3503235080800067,229.35106250216813,0.7037037036903594,-15.625,1.0756490184394216,91.44566704825047,1.03953816204584,196.33333333333303,-95.74426421503563,892.4525364610134,-9.765625,47.526041666666664,-552.3677936270469,1645.7082671434016,2.5170000000000012
8,37851,43122,40497,20.2485,858.9285778427021,39.0625,1592.0402079108815,5271,0,07-04,1.311975053869628,204.24495767171788,0.7407407407266942,-13.671875,1.317025540229489,383.22522347849554,1.0614888903803996,305.33333333333303,-25.10610483045025,907.5807358013475,1.953125,41.015625,291.77955643024507,1581.6431014997336,2.6454999999999984
9,43122,48748,45748,22.874,993.8095423624197,37.109375,2224.3513141859767,5626,1,07-04,1.5179997051115282,339.1259221914355,0.7037037036903594,-15.625,1.8401089851054488,1015.5363297535907,1.1329797945892863,660.333333333333,134.88096451971762,912.2576009594246,-1.953125,37.760416666666664,632.3111062750952,1705.5507245258314,2.625499999999999
10,48748,55742,51748,25.874,692.5166999514125,42.96875,1298.8317190720056,6994,1,07-04,1.0577883402207156,37.83307978042831,0.8148148147993636,-9.765625,1.0744669248791732,90.0167346396197,1.408471504329447,2028.333333333333,-301.2928424110072,848.4182733855114,5.859375,39.713541666666664,-925.519595113971,1705.0744137229547,3.0
11,55742,64244,59736,29.868,791.441257054007,39.0625,1522.5400352561976,8502,1,07-04,1.2088911844870913,136.75763688302277,0.7407407407266942,-13.671875,1.2595310737067555,313.72505082381167,1.7121568100956475,3536.333333333333,98.92455710259446,825.9224997892798,-3.90625,39.713541666666664,223.70831618419197,1681.9076895047265,3.9939999999999998
12,64244,72674,68753,34.3765,607.2835503954464,41.015625,1230.5830976591046,8430,1,07-04,0.9275985096983396,-47.40006977553787,0.7777777777630288,-11.71875,1.018007812201238,21.768113226718697,1.6976572464251127,3464.333333333333,-184.15770665856064,697.0805024669553,1.953125,41.015625,-291.956937597093,1350.6516173291025,4.5085000000000015
13,72674,80741,76595,38.2975,528.0090359416329,41.015625,778.4063459892944,8067,1,07-04,0.8065102282579268,-126.67458422935135,0.7777777777630288,-11.71875,0.6439416751225672,-430.4086384430915,1.6245552795861664,3101.333333333333,-79.27451445381348,642.2446144636954,0.0,40.364583333333336,-452.1767516698102,1177.1764929681988,3.9209999999999994
14,80741,85200,84887,42.4435,514.5329483100813,35.15625,880.8714018452498,4459,1,07-04,0.7859261060707681,-140.1506718609029,0.6666666666540247,-17.578125,0.7287065540953277,-327.9435825871361,0.8979660334293686,-506.66666666666697,-13.476087631551536,549.9418448823868,-5.859375,39.0625,102.46505585595537,963.2869484978828,4.146000000000001
1,0,4530,618,0.309,578.7304745479894,41.015625,874.5205019123306,4530,0,08-01,1.0123404019794315,7.054708752824013,0.8630136986119783,-6.510416666666664,0.8602308526885616,-142.09091021994527,0.7761722542691,-1306.333333333333,0.0,578.7304745479894,0.0,41.015625,0.0,874.5205019123306,0.0
2,4530,11231,8443,4.2215,577.3516652783455,44.921875,1018.9844898309422,6701,0,08-01,1.0099285291099849,5.67589948318016,0.9452054794321667,-2.6041666666666643,1.0023343016508999,2.373077698666293,1.1481523787764325,864.666666666667,-1.3788092696438525,578.0410699131675,3.90625,42.96875,144.46398791861156,946.7524958716364,3.9124999999999996
3,11231,17509,14019,7.0095,558.9451575591611,56.640625,1156.329244653555,6278,0,08-01,0.9777310689053357,-12.730608236004286,1.191780821892732,9.114583333333336,1.1374348456575878,139.7178325212791,1.0756753669539536,441.66666666666697,-18.406507719184447,571.6757657951654,11.71875,47.526041666666664,137.3447548226128,1016.6114121322759,2.7880000000000003
4,17509,25087,21000,10.5,560.6338102222036,46.875,1061.733087240074,7578,0,08-01,0.9806849332530586,-11.041955572961797,0.9863013698422609,-0.6510416666666643,1.0443843877496062,45.12167510779807,1.2984179564793024,1741.666666666667,1.6886526630424896,565.6435443532367,-9.765625,49.479166666666664,-94.59615741348102,1079.0156072415236,3.4905
5,25087,31617,29175,14.5875,512.4832832573281,52.734375,659.0948601644349,6530,0,08-01,0.8964579468286528,-59.192482537837236,1.1095890410725435,5.208333333333336,0.6483252620402699,-357.516551967841,1.118853161231175,693.666666666667,-48.15052696487544,544.020750346231,5.859375,52.083333333333336,-402.63822707563907,959.0523973526879,4.0875
6,31617,36763,34060,17.03,632.8703240601095,44.921875,960.1518066073686,5146,0,08-01,1.107044170708757,61.194558264944135,0.9452054794321667,-2.6041666666666643,0.9444629434097819,-56.45960552490726,0.8817179736134191,-690.333333333333,120.38704080278137,568.6624725132137,-7.8125,48.177083333333336,301.05694644293374,893.6599180039592,2.442500000000001
7,36763,42167,39466,19.733,560.477621068471,44.921875,973.7826645496006,5404,0,08-01,0.9804117204232037,-11.198144726694409,0.9452054794321667,-2.6041666666666643,0.9578710733791561,-42.828747582675305,0.9259238106115267,-432.33333333333303,-72.39270299163854,568.6104094619695,0.0,47.526041666666664,13.630857942231955,864.3431104404681,2.7029999999999994
8,42167,48489,44868,22.434,592.8566666574684,42.96875,1320.7291766462004,6322,0,08-01,1.0370505488050639,21.18090086230302,0.9041095890220725,-4.557291666666664,1.2991484857274602,304.1177645139245,1.0832143469071192,485.66666666666697,32.37904558899743,595.4015372620162,-1.953125,44.270833333333336,346.9465120965998,1084.8878826010566,2.7010000000000005
9,48489,54815,52110,26.055,520.7940796803423,42.96875,979.7015991465723,6326,0,08-01,0.9109955517443339,-50.88168611482308,0.9041095890220725,-4.557291666666664,0.9636932926915985,-36.909812985703525,1.0838997087210434,489.66666666666697,-72.0625869771261,558.0427891354271,0.0,43.619791666666664,-341.027577499628,1091.4044801141245,3.6209999999999987
10,54815,59964,57520,28.76,590.8043943426488,42.96875,847.4353547010171,5149,0,08-01,1.0334606252196876,19.12862854748346,0.9041095890220725,-4.557291666666664,0.83358827629403,-169.17605743125876,0.8822319949738622,-687.333333333333,70.01031466230654,568.1517135601532,0.0,42.96875,-132.26624444555523,1049.2887101645965,2.705000000000002
11,59964,67200,62408,31.204,472.04169721566666,46.875,876.2252814334003,7236,0,08-01,0.825715773622589,-99.63406857949872,0.9863013698422609,-0.6510416666666643,0.8619077761430134,-140.3861306988756,1.2398195213887875,1399.666666666667,-118.76269712698218,527.8800570795526,3.90625,44.270833333333336,28.78992673238315,901.1207450936632,2.443999999999999
1,0,6556,3375,1.6875,409.49334444163225,39.0625,746.1918635989366,6556,0,08-02,0.9492794767422058,-21.879454058138094,0.8955223880391714,-4.557291666666664,0.8809344021070242,-100.85402519063666,1.141364902506765,812.0,0.0,409.49334444163225,0.0,39.0625,0.0,746.1918635989366,0.0
2,6556,12315,9737,4.8685,404.42023591827314,46.875,1046.4161421899375,5759,0,08-02,0.937519095603222,-26.952562581497205,1.0746268656470057,3.2552083333333357,1.2353712544240414,199.37025340036428,1.0026114206126386,15.0,-5.07310852335911,406.9567901799527,7.8125,42.96875,300.22427859100094,896.3040028944371,3.181
3,12315,17232,14893,7.4465,480.20481513940564,44.921875,748.5296605798453,4917,0,08-02,1.1132014276476176,48.8320166396353,1.0298507462450472,1.3020833333333357,0.8836943434653923,-98.51622820972796,0.8560236768800737,-827.0,75.7845792211325,431.37279849977034,-1.953125,43.619791666666664,-297.88648161009223,847.0458887895733,2.5780000000000003
4,17232,22341,19572,9.786,430.91553749373344,46.875,596.8668039357997,5109,0,08-02,0.9989399864603746,-0.45726100603690156,1.0746268656470057,3.2552083333333357,0.7046451813702991,-250.1790848537736,0.8894498607240791,-635.0,-49.2892776456722,438.51352951713744,1.953125,46.223958333333336,-151.66285664404563,797.2708689018609,2.3394999999999992
5,22341,27863,25111,12.5555,398.24058082763264,46.875,722.3702078636815,5522,0,08-02,0.9231935398145451,-33.1322176721377,1.0746268656470057,3.2552083333333357,0.8528111846397061,-124.67568092589181,0.9613509749301947,-222.0,-32.6749566661008,436.4536444869239,0.0,46.223958333333336,125.50340392788178,689.2555574597754,2.7695000000000007
6,27863,33351,30615,15.3075,459.8478472806849,46.875,892.1773851313326,5488,0,08-02,1.0660103021768623,28.475048780914562,1.0746268656470057,3.2552083333333357,1.053281052346761,45.131496341759316,0.9554317548744854,-256.0,61.60726645305226,429.667988534017,0.0,46.875,169.80717726765113,737.1381323102713,2.751999999999999
7,33351,38635,36087,18.0435,425.8532350038488,46.875,732.9897729387958,5284,0,08-02,0.9872046556572304,-5.519563495921545,1.0746268656470057,3.2552083333333357,0.8653483626316529,-114.05611585077747,0.9199164345402298,-460.0,-33.99461227683611,427.9805543707221,0.0,46.875,-159.1876121925368,782.51245531127,2.7360000000000024
8,38635,44174,41183,20.5915,509.32407837753993,44.921875,993.4594878246633,5539,0,08-02,1.1807051352048348,77.9512798777696,1.0298507462450472,1.3020833333333357,1.1728520272297667,146.41359903509,0.9643105849580493,-205.0,83.47084337369114,465.00838688735786,-1.953125,46.223958333333336,260.46971488586746,872.8755486315972,2.5479999999999983
9,44174,49664,47165,23.5825,402.25088269288193,48.828125,635.2800867287208,5490,0,08-02,0.9324901433073639,-29.12191580688841,1.1194029850489642,5.208333333333336,0.7499948882766961,-211.76580206085248,0.9557799442895272,-254.0,-107.073195684658,445.8093986914235,3.90625,46.875,-358.17940109594247,787.2431158307267,2.9909999999999997
10,49664,54908,52164,26.082,467.15654683289347,50.78125,756.1812479932369,5244,0,08-02,1.0829531867945523,35.78374833312313,1.1641791044509229,7.161458333333336,0.8927276054346069,-90.8646407963364,0.9129526462393953,-500.0,64.90566414001154,459.57716930110513,1.953125,48.177083333333336,120.90116126451608,794.9736075155403,2.499500000000001
11,54908,60645,57652,28.826,461.38893907384124,46.875,927.351433846723,5737,0,08-02,1.0695828310857605,30.016140574070903,1.0746268656470057,3.2552083333333357,1.0948066050716703,80.30554505714974,0.9987813370471798,-7.0,-5.7676077590522254,443.5987895332055,-3.90625,48.828125,171.17018585348615,772.9375895228935,2.7439999999999998
12,60645,72200,63638,31.819,390.04254589316145,44.921875,817.7914498563634,11555,1,08-02,0.9041890152757625,-41.330252606608894,1.0298507462450472,1.3020833333333357,0.9654629822051556,-29.254438933209826,2.0116643454035494,5811.0,-71.3463931806798,439.5293439332988,-1.953125,47.526041666666664,-109.55998399035957,833.7747105654412,2.9929999999999986
1,0,4964,841,0.4205,542.521891442956,37.109375,1019.0559701537959,4964,0,08-03,1.0179986037008029,9.591994024954147,0.8636363636162645,-5.859375,1.036809481443323,36.17918479285345,0.884113037283148,-650.666666666667,0.0,542.521891442956,0.0,37.109375,0.0,1019.0559701537959,0.0
2,4964,11766,9088,4.544,434.67063049168496,46.875,961.331146662039,6802,0,08-03,0.8156244050048798,-98.25926692631685,1.0909090908837025,3.90625,0.9780790033697161,-21.545638698903417,1.2114699596293257,1187.333333333333,-107.851260951271,488.59626096732046,9.765625,41.9921875,-57.724823491756865,990.1935584079174,4.1235
3,11766,16844,14444,7.222,621.5971703193645,44.921875,968.2432392669924,5078,0,08-03,1.166376991288688,88.66727290136271,1.0454545454302149,1.953125,0.9851115151839086,-14.63354609395003,0.9044170030869915,-536.666666666667,186.92653982767956,532.9298974180018,-1.953125,42.96875,6.912092604953386,982.8767853609424,2.678000000000001
4,16844,22588,19245,9.6225,470.2667430551522,44.921875,944.556559279082,5744,0,08-03,0.882417641293293,-62.66315436284964,1.0454545454302149,1.953125,0.9610121770566092,-38.32022608186048,1.0230349085726032,129.33333333333303,-151.33042726421235,508.84484795540055,0.0,45.572916666666664,-23.686679987910452,958.0436484027044,2.4005
5,22588,29016,25931,12.9655,516.3586145161082,46.875,1008.334606372653,6428,0,08-03,0.9689053232270344,-16.571282901893596,1.0909090908837025,3.90625,1.0259013351315809,25.457821011710507,1.1448587033956639,813.333333333333,46.09187146095604,536.0741759635417,1.953125,45.572916666666664,63.77804709357099,973.7114683062424,3.343
6,29016,35851,32102,16.051,488.96306720919625,54.6875,819.3780022958745,6835,0,08-03,0.917499786702269,-43.96683020880556,1.272727272697653,11.71875,0.833652818439638,-163.49878306506798,1.2173474234146489,1220.333333333333,-27.395547306911965,491.86280826015224,7.8125,48.828125,-188.9566040767785,924.089722649203,3.085499999999998
7,35851,42924,39601,19.8005,523.0078203640984,50.78125,862.8442425077956,7073,0,08-03,0.9813820220952955,-9.922077053903422,1.1818181817906779,7.8125,0.8778763069371456,-120.03254285314688,1.2597364046542519,1458.333333333333,34.04475315490214,509.4431673631343,-3.90625,50.78125,43.466240211921104,896.852283725441,3.749500000000001
8,42924,49673,46247,23.1235,564.2509966094938,48.828125,849.0807199930314,6749,0,08-03,1.0587715182469235,31.321099191491953,1.13636363633719,5.859375,0.8638730028406959,-133.79606536791107,1.2020303965801704,1134.333333333333,41.243176245395375,525.4072947275962,-1.953125,51.432291666666664,-13.76352251476419,843.7676549322338,3.3230000000000004
9,49673,56000,53100,26.55,538.4189097651058,48.828125,1085.5844636205197,6327,1,08-03,1.0102996892699911,5.489012347103994,1.13636363633719,5.859375,1.1044970028677148,102.70767825957728,1.1268701021133114,712.333333333333,-25.83208684438796,541.892575579566,0.0,49.479166666666664,236.50374362748835,932.5031420404489,3.4265000000000008
10,56000,61685,58901,29.4505,681.2578555833608,46.875,1314.2685344019367,5685,1,08-03,1.2783254587192734,148.32795816535895,1.0909090908837025,3.90625,1.337165099405578,331.3917490409942,1.0125267157442983,70.33333333333303,142.83894581825496,594.6425873193201,-1.953125,48.177083333333336,228.68407078141695,1082.9779060051626,2.900500000000001
11,61685,67312,64469,32.2345,594.6916700820308,42.96875,1049.4319680405342,5627,1,08-03,1.1158909885937032,61.76177266402897,0.9999999999767274,0.0,1.06771467560309,66.55518267959178,1.002196627879185,12.33333333333303,-86.56618550132998,604.7894784768324,-3.90625,46.223958333333336,-264.83656636140245,1149.7616553543303,2.7839999999999954
12,67312,74885,70155,35.0775,601.8789231463348,44.921875,1072.154869702848,7573,1,08-03,1.1293772896984304,68.94902572833303,1.0454545454302149,1.953125,1.0908334449144905,89.27808434190547,1.3487888862500563,1958.333333333333,7.187253064304059,625.9428162705755,1.953125,44.921875,22.72290166231369,1145.2851240484397,2.8430000000000035
13,74885,81000,79616,39.808,346.07404495857145,140.625,789.1203438693336,6115,1,08-03,0.6493800528636509,-186.85585245943037,3.2727272726511076,97.65625,0.8028680253941918,-193.75644149160883,1.0891118499166903,500.33333333333303,-255.8048781877634,514.2148793956458,95.703125,76.171875,-283.0345258335143,970.2357272042386,4.730499999999999
1,0,8139,3158,1.579,677.6476476812458,54.6875,1216.9624398310623,8139,0,08-04,0.9828535854825876,-11.82193119558508,1.0370370370173718,1.953125,0.9814432864538473,-23.00980984136845,1.103842676310881,765.666666666667,0.0,677.6476476812458,0.0,54.6875,0.0,1216.9624398310623,0.0
2,8139,16288,13121,6.5605,845.0687036140015,50.78125,1632.459779772516,8149,0,08-04,1.2256794636094333,155.59912473717065,0.9629629629447024,-1.953125,1.316529285395261,392.4875301000852,1.1051989150088917,775.666666666667,167.42105593275573,761.3581756476236,-3.90625,52.734375,415.4973399414537,1424.711109801789,4.9815000000000005
3,16288,22120,19455,9.7275,545.6923853352451,52.734375,870.4945294137141,5832,0,08-04,0.791466950903628,-143.7771935415857,0.9999999999810371,0.0,0.7020274281484724,-369.47772025871666,0.7909584086798204,-1541.333333333333,-299.37631827875634,689.4695788768308,1.953125,52.734375,-761.9652503588019,1239.9722496724307,3.166999999999999
4,22120,27610,24786,12.393,566.5549135386708,46.875,1073.3740182921283,5490,0,08-04,0.8217257597656247,-122.91466533816003,0.888888888872033,-5.859375,0.8656435807937,-166.59823138030242,0.7445750452078556,-1883.333333333333,20.862528203425654,652.4386674959725,-5.859375,50.130208333333336,202.87948887841424,1192.109442492786,2.6655000000000015
5,27610,33480,30435,15.2175,506.4421779419962,48.828125,892.1243578371988,5870,0,08-04,0.7345388302211578,-183.02740093483465,0.9259259259083676,-3.90625,0.7194712285473776,-347.84789183523196,0.7961121157322609,-1503.333333333333,-60.11273559667461,539.5631589386375,1.953125,49.479166666666664,-181.24966045492954,945.3309685143471,2.8244999999999987
6,33480,39745,36526,18.263,593.5261080299795,46.875,1204.050773166459,6265,1,08-04,0.8608445190518669,-95.94347084685137,0.888888888872033,-5.859375,0.9710304190142705,-35.92147650597167,0.8496835443036822,-1108.333333333333,87.08393008798328,555.5077331702155,-1.953125,47.526041666666664,311.9264153292603,1056.5163830985953,3.0455000000000023
7,39745,45095,42965,21.4825,709.0624273637031,42.96875,1113.572803166162,5350,1,08-04,1.0284172776959373,19.5928484868723,0.8148148147993636,-9.765625,0.8980626812087461,-126.39944650626876,0.7255877034357063,-2023.333333333333,115.53631933372367,603.0102377785596,-3.90625,46.223958333333336,-90.47797000029709,1069.9159780566065,3.2195
8,45095,52000,47225,23.6125,336.2808886100169,46.875,484.58427067838636,6905,1,08-04,0.4877385441100129,-353.1886902668139,0.888888888872033,-5.859375,0.39080251256107584,-755.3879789940444,0.9364828209763648,-468.33333333333303,-372.7815387536862,546.2898080012332,3.90625,45.572916666666664,-628.9885324877756,934.0692823370024,2.129999999999999
1,0,5438,690,0.345,542.1472288622518,82.03125,1079.0648804466282,5438,0,09-02,1.222103336271197,98.52907254889584,1.2352941176284566,15.625,1.3315393102004636,268.6758275820581,0.9995098639870726,-2.66666666666697,0.0,542.1472288622518,0.0,82.03125,0.0,1079.0648804466282,0.0
2,5438,12238,10187,5.0935,362.0967581664586,60.546875,752.0288141761162,6800,0,09-02,0.8162352081682387,-81.52139814689741,0.9117647058686228,-5.859375,0.927984912329344,-58.36023868845393,1.2498468324957877,1359.333333333333,-180.05047069579325,452.1219935143552,-21.484375,71.2890625,-327.03606627051204,915.5468473113722,4.7485
3,12238,16322,14290,7.145,426.61048191135757,56.640625,600.073463970966,4084,0,09-02,0.9616614555538019,-17.00767440199843,0.8529411764577439,-9.765625,0.7404757774664907,-210.31558889360406,0.7506433035165878,-1356.666666666667,64.51372374489898,443.618156313356,-3.90625,66.40625,-151.95535020515013,810.3890528645701,2.0515
4,16322,20570,18354,9.177,469.37982430863116,58.59375,790.9177073615374,4248,0,09-02,1.0580717169204858,25.76166799527516,0.8823529411631833,-7.8125,0.9759728423833205,-19.471345503032694,0.7807866683003097,-1192.666666666667,42.76934239727359,419.3623547954824,1.953125,58.59375,190.84424339057136,714.3399951695397,2.032
5,20570,25122,22787,11.3935,482.46918266741443,66.40625,714.7005233179705,4552,0,09-02,1.0875776290939903,38.85102635405843,0.9999999999849412,0.0,0.8819227268566364,-95.68852954659963,0.8366621737530626,-888.666666666667,13.089358358783272,459.48649629580103,7.8125,60.546875,-76.21718404356693,701.8972315501579,2.2165
6,25122,31715,27458,13.729,501.6664695362874,62.5,712.0359659361634,6593,0,09-02,1.130851977980805,58.04831322293143,0.9411764705740623,-3.90625,0.8786347291074257,-98.3530869284067,1.2118000245065776,1152.333333333333,19.197286868872993,484.5051588374443,-3.90625,62.5,-2.6645573818070716,739.218065538557,2.3354999999999997
7,31715,37996,35973,17.9865,493.999421616168,62.5,682.9524330338678,6281,0,09-02,1.1135689885201878,50.38126530281198,0.9411764705740623,-3.90625,0.8427463705474785,-127.43661983070228,1.1544541110155946,840.333333333333,-7.667047920119444,492.71169127328994,0.0,63.802083333333336,-29.083532902295588,703.2296407626673,4.2575
8,37996,42075,40019,20.0095,627.3130687297659,62.5,1044.9662676782812,4079,0,09-02,1.4140833953722134,183.69491241640986,0.9411764705740623,-3.90625,1.2894624674201065,234.57721481371107,0.7497242984926938,-1361.666666666667,133.31364711359788,540.992986627407,0.0,62.5,362.01383464441335,813.318222216104,2.0229999999999997
9,42075,46409,44132,22.066,562.3066324228979,58.59375,798.8468058804426,4334,0,09-02,1.2675464798254044,118.68847610954191,0.8823529411631833,-7.8125,0.9857571533767472,-11.542246984127473,0.7965935547112859,-1106.666666666667,-65.00643630686795,561.2063742562773,-3.90625,61.197916666666664,-246.11946179783854,842.2551688641971,2.0564999999999998
10,46409,51029,48687,24.3435,573.4246505327121,56.640625,846.8349341373705,4620,1,09-02,1.2926086147979319,129.80649421935613,0.8529411764577439,-9.765625,1.0449733139199329,36.44588127280042,0.8491606420780206,-820.666666666667,11.118018109814216,587.6814505617918,-1.953125,59.244791666666664,47.988128256927894,896.8826692320314,2.2775
11,51029,57586,53371,26.6855,571.7714538830112,60.546875,1186.5621989125464,6557,1,09-02,1.2888819939954022,128.1532975696552,0.9117647058686228,-5.859375,1.464188336104507,376.1731460479763,1.2051831883345412,1116.333333333333,-1.6531966497009307,569.1675789462071,3.90625,58.59375,339.72726477517585,944.0813129767863,2.3420000000000023
12,57586,66200,61802,30.901,700.878457436135,42.96875,1211.898693403192,8614,1,09-02,1.5799138233185381,257.260301122779,0.6470588235196678,-23.4375,1.4954529421613814,401.50964053862197,1.583261855164517,3173.333333333333,129.10700355312383,615.3581872839527,-17.578125,53.385416666666664,25.33649449064569,1081.7652754843696,4.215499999999999
1,0,6240,3493,1.7465,630.0414404163496,42.96875,1196.3563347475126,6240,0,09-03,1.1521912189048997,83.22123377216042,0.7951807228768506,-11.067708333333336,1.2476975471807095,237.5050991659847,1.0213880401569695,130.66666666666697,0.0,630.0414404163496,0.0,42.96875,0.0,1196.3563347475126,0.0
2,6240,11868,8987,4.4935,605.1052809228689,56.640625,1005.2376524963317,5628,0,09-03,1.1065891010781514,58.28507427867976,1.0481927710649395,2.6041666666666643,1.0483770737236657,46.38641691480382,0.9212134439108051,-481.33333333333303,-24.93615949348066,617.5733606696092,13.671875,49.8046875,-191.11868225118087,1100.7969936219222,2.747
3,11868,18328,14750,7.375,405.313898593349,62.5,674.9597195007394,6460,0,09-03,0.7412196800114627,-141.50630805084018,1.156626506002692,8.463541666666664,0.7039253790924963,-283.8915160807885,1.0573985159317343,350.66666666666697,-199.79138232951993,546.8202066441892,5.859375,54.036458333333336,-330.2779329955923,958.8512355815279,2.8815
4,18328,24441,21907,10.9535,441.52385539206233,58.59375,638.4965476896173,6113,0,09-03,0.8074388071736902,-105.29635125212684,1.0843373493775237,4.557291666666664,0.6658974030540967,-320.35468789191066,1.0006001745960824,3.66666666666697,36.209956798713336,483.9810116360934,-3.90625,59.244791666666664,-36.46317181112215,772.8979732288961,3.5785
5,24441,30523,26976,13.488,440.8230330886955,58.59375,612.6618451704811,6082,0,09-03,0.8061571751219663,-105.99717355549365,1.0843373493775237,4.557291666666664,0.6389540133389645,-346.1893904110468,0.9955259711914564,-27.33333333333303,-0.700822303366806,429.2202623580356,0.0,59.895833333333336,-25.834702519136158,642.0393707869459,2.5344999999999995
6,30523,36157,34070,17.035,549.1927648487625,64.453125,730.3587828742345,5634,0,09-03,1.0043388268662004,2.3725582045733518,1.192771084315276,10.416666666666664,0.7617018738371045,-228.4924527072934,0.9221955477955714,-475.33333333333303,108.369731760067,477.1798844431735,5.859375,60.546875,117.6969377037534,660.5057252447776,3.5470000000000006
7,36157,40434,38245,19.1225,542.3955031166906,58.59375,777.793297636475,4277,0,09-03,0.9919083028119158,-4.4247035274985365,1.0843373493775237,4.557291666666664,0.811172024160708,-181.0579379450529,0.7000763858575895,-1832.333333333333,-6.797261732071888,510.80376701804954,-5.859375,60.546875,47.4345147622405,706.9379752270635,2.0874999999999986
8,40434,44724,42624,21.312,611.3028608839481,58.59375,1319.418038670277,4290,0,09-03,1.1179229543004057,64.48265423975897,1.0843373493775237,4.557291666666664,1.376040400958231,360.566803088749,0.7022042776079165,-1819.333333333333,68.90735776725751,567.6303762831338,0.0,60.546875,541.6247410338019,942.5233730603289,2.1895000000000024
9,44724,50936,46824,23.412,652.7193387378994,56.640625,1037.8645899215094,6212,1,09-03,1.1936635310944612,105.89913209371025,1.0481927710649395,2.6041666666666643,1.082404184723169,79.01335433998145,1.0168048886947265,102.66666666666697,41.41647785395128,602.1392342461794,-1.953125,57.942708333333336,-281.55344874876755,1045.0253087427536,2.099999999999998
10,50936,63400,55048,27.524,563.5156868052543,54.6875,1325.0049838546759,12464,1,09-03,1.0305319371105433,16.69548016106512,1.0120481927523555,0.6510416666666643,1.3818671079353615,366.1537482731479,2.0401571366212288,6354.666666666667,-89.20365193264513,609.1792954757007,-1.953125,56.640625,287.1403939331665,1227.4292041488209,4.112000000000002
1,0,8143,4519,2.2595,379.01362657028034,62.5,657.2403747542651,8143,0,09-04,0.863345952128032,-59.99187943249785,1.0212765957279928,1.3020833333333357,0.9415643567117729,-40.78984492036818,1.1632303223654354,1142.666666666667,0.0,379.01362657028034,0.0,62.5,0.0,657.2403747542651,0.0
2,8143,14138,11768,5.884,449.72303950002225,56.640625,637.7198350800529,5995,0,09-04,1.0244132097426402,10.717533497244062,0.9255319148784935,-4.557291666666664,0.9135991782367161,-60.31038459458034,0.8563877910574463,-1005.333333333333,70.70941292974192,414.3683330351513,-5.859375,59.5703125,-19.52053967421216,647.480104917159,3.6245000000000003
3,14138,21001,16509,8.2545,488.2798519380318,64.453125,799.1304491895817,6863,0,09-04,1.112240838122494,49.27434593525362,1.0531914893444927,3.2552083333333357,1.1448364650472131,101.10022951494841,0.9803818865766896,-137.33333333333303,38.55681243800956,439.0055060027782,7.8125,61.197916666666664,161.41061410952875,698.0302196746333,2.3705
4,21001,27677,25494,12.747,478.6937873293523,64.453125,601.659649399506,6676,0,09-04,1.0904049739304011,39.6882813265741,1.0531914893444927,3.2552083333333357,0.8619392577001758,-96.3705702751273,0.9536688729106775,-324.33333333333303,-9.586064608679521,472.2322262558021,0.0,61.848958333333336,-197.47079979007572,679.5033112230468,4.4925
5,27677,32095,29861,14.9305,556.9665780329283,66.40625,855.2179330340194,4418,0,09-04,1.268700666428851,117.96107203015009,1.0851063829609924,5.208333333333336,1.2251875476557872,157.18771335938618,0.631112804152093,-2582.333333333333,78.27279070357599,507.98007243343744,1.953125,65.10416666666667,253.5582836345135,752.0026772077023,2.1835000000000004
6,32095,36728,34329,17.1645,603.7035799484235,54.6875,917.4141559799571,4633,0,09-04,1.3751617501198898,164.69807394564526,0.8936170212619937,-6.510416666666664,1.3142900265926438,219.3839363053238,0.6618256273509839,-2367.333333333333,46.73700191549517,546.4546484369014,-11.71875,61.848958333333336,62.19622294593762,791.4305794711609,2.234
7,36728,41502,39127,19.5635,640.2265631255143,60.546875,1188.1972505815193,4774,0,09-04,1.458356568129249,201.2210571227361,0.9893617021114931,-0.6510416666666643,1.702214627804597,490.167030906886,0.681967525355838,-2226.333333333333,36.52298317709085,600.2989070356219,5.859375,60.546875,270.7830946015622,986.9431131984987,2.399000000000001
8,41502,46290,43878,21.939,664.8027503445492,60.546875,1316.007018574916,4788,1,09-04,1.5143380692332995,225.79724434177098,0.9893617021114931,-0.6510416666666643,1.8853152506584163,617.9767989002827,0.6839674301222775,-2212.333333333333,24.576187219034864,636.2442978061623,0.0,58.59375,127.80976799339669,1140.539475045464,2.375499999999999
9,46290,51663,48703,24.3515,681.3321450796905,52.734375,1260.1261221380933,5373,1,09-04,1.5519899768041332,242.32663907691227,0.8617021276454939,-8.463541666666664,1.8052601257344698,562.09590246346,0.7675348792913527,-1627.333333333333,16.529394735141295,662.1204861832513,-7.8125,57.942708333333336,-55.880896436822695,1254.776797098176,2.4125000000000014
10,51663,57111,54623,27.3115,679.1505609321024,48.828125,1179.1286807779002,5448,1,09-04,1.5470205991590855,240.1450549293242,0.7978723404124944,-12.369791666666664,1.6892229699250385,481.0984611032669,0.7782486548258495,-1552.333333333333,-2.181584147588069,675.0951521187807,-3.90625,54.036458333333336,-80.99744136019308,1251.75394049697,2.9599999999999973
11,57111,67800,59599,29.7995,488.6217200311197,48.828125,1552.5211418080332,10689,1,09-04,1.1130195711643638,49.61621402834152,0.7978723404124944,-12.369791666666664,2.2241460298516476,854.4909221334,1.5269272891764878,3688.666666666667,-190.5288409009827,616.3681420143042,0.0,50.130208333333336,373.39246103013306,1330.5919815746756,2.4879999999999995
1,0,8806,6422,3.211,318.0456465278353,68.359375,556.740853156603,8806,0,10-01,0.983988763088821,-5.175164986800382,0.972222222208395,-1.953125,1.0840605220561346,43.1709538491823,1.3613315469440335,2337.333333333333,0.0,318.0456465278353,0.0,68.359375,0.0,556.740853156603,0.0
2,8806,13725,11190,5.595,354.7224807304911,72.265625,550.6437929390967,4919,0,10-01,1.097461760172988,31.50166921585543,1.0277777777631605,1.953125,1.072188603110502,37.073893631676015,0.7604349170358506,-1549.666666666667,36.67683420265581,336.38406362916317,3.90625,70.3125,-6.097060217506282,553.6923230478499,2.384
3,13725,19406,16260,8.13,296.89430728558074,70.3125,433.3250518265622,5681,0,10-01,0.9185494767289099,-26.326504229054933,0.9999999999857777,0.0,0.8437508748275218,-80.24484748085848,0.8782335360196518,-787.666666666667,-57.82817344491036,323.2208115146357,-1.953125,70.3125,-117.3187411125345,513.5698993074205,2.535000000000001
4,19406,25551,22552,11.276,355.1562731510998,72.265625,514.5734589357402,6145,0,10-01,1.0988038532720512,31.93546163646414,1.0277777777631605,1.953125,1.001954085760616,1.0035596283195218,0.949963928681704,-323.66666666666697,58.26196586551907,335.5910203890572,1.953125,71.61458333333333,81.248407109178,499.5141012337997,3.145999999999999
5,25551,31547,28550,14.275,333.76429816374343,66.40625,470.5316579822206,5996,0,10-01,1.0326200735610669,10.543486649107763,0.9444444444310123,-3.90625,0.9161978897436244,-43.03824132520003,0.9269298155208295,-472.66666666666697,-21.391974987356377,328.60495953347464,-5.859375,69.66145833333333,-44.041800953519555,472.81005624817436,2.9990000000000006
6,31547,37343,34544,17.272,344.98641586635546,70.3125,466.29329101300016,5796,0,10-01,1.0673397367225745,21.765604351719787,0.9999999999857777,0.0,0.9079451339358406,-47.2766082944205,0.8960115428216691,-672.666666666667,11.222117702612024,344.6356623937329,3.90625,69.66145833333333,-4.238366969220465,483.7994693103203,2.996999999999998
7,37343,42864,40142,20.071,385.66819273936835,68.359375,566.0261610548092,5521,0,10-01,1.1932034664813402,62.44738122473268,0.972222222208395,-1.953125,1.1021404521897151,52.45626174738857,0.8534989178603235,-947.666666666667,40.68177687301289,354.80630225648906,-1.953125,68.359375,99.73287004180906,500.9503700166767,2.799000000000003
8,42864,48462,45586,22.793,369.62930290405484,66.40625,526.9541947397717,5598,0,10-01,1.1435813837939521,46.40849138941917,0.9444444444310123,-3.90625,1.0260612926290549,13.384295432350996,0.8654024528495002,-870.666666666667,-16.038889835313512,366.76130383659284,-1.953125,68.359375,-39.07196631503757,519.7578822691937,2.7219999999999978
9,48462,53841,51339,25.6695,391.5329327228601,60.546875,533.4624390332333,5379,1,10-01,1.2113481520168756,68.31212120822443,0.8611111110988642,-9.765625,1.038733850546148,19.89253972581264,0.8315469442439196,-1089.666666666667,21.903629818805257,382.2768094554278,-5.859375,65.10416666666667,6.508244293461644,542.1475982759381,2.8765
10,53841,59022,56343,28.1715,442.74649283343643,64.453125,601.2473071008491,5181,1,10-01,1.3697957466207857,119.52568131880076,0.9166666666536296,-5.859375,1.170721469288788,87.67740779342842,0.8009378542717508,-1287.666666666667,51.21356011057634,401.3029094867838,3.90625,63.802083333333336,67.78486806761578,553.8879802912847,2.5020000000000024
11,59022,71800,61701,30.8505,269.0093133148768,66.40625,614.2202463621069,12778,1,10-01,0.8322772040991042,-54.211498199758864,0.9444444444310123,-3.90625,1.1959817878524874,100.65034705468622,1.9753684427493594,6309.333333333333,-173.73717951855963,367.7629129570578,1.953125,63.802083333333336,12.972939261257807,582.9766641653965,2.6789999999999985
1,0,6319,3783,1.8915,338.0979155429176,68.359375,572.7561403250278,6319,0,10-02,0.9213425269280503,-28.864322344099094,0.9545454545321256,-3.2552083333333286,1.0590940105302515,31.957934850133597,1.239505688505053,1221.0,0.0,338.0979155429176,0.0,68.359375,0.0,572.7561403250278,0.0
2,6319,10941,8855,4.4275,386.21036325143706,74.21875,566.5751876622734,4622,0,10-02,1.0524526051350662,19.24812536442039,1.036363636349165,2.6041666666666714,1.0476646962311864,25.77698218737919,0.9066300510002144,-476.0,48.11244770851948,362.15413939717735,5.859375,71.2890625,-6.180952662754407,569.6656639936506,2.5360000000000005
3,10941,15294,13027,6.5135,376.57843486669526,72.265625,483.06328843738146,4353,0,10-02,1.026204867928708,9.616196979678591,1.0090909090768185,0.6510416666666714,0.8932412932330149,-57.73491703751273,0.8538642604941439,-745.0,-9.631928384741798,366.96223788701667,-1.953125,71.61458333333333,-83.51189922489192,540.7982054748942,2.0859999999999994
4,15294,19889,17561,8.7805,397.7600822110305,72.265625,617.9647511617927,4595,0,10-02,1.0839264674759592,30.79784432401385,1.0090909090768185,0.6510416666666714,1.1426900919872565,77.16654568689853,0.9013338564141032,-503.0,21.18164734433526,386.8496267763876,0.0,72.91666666666667,134.90146272441126,555.8677424204825,2.2670000000000003
5,19889,25053,22218,11.109,399.18897900368717,72.265625,555.8472302208825,5164,0,10-02,1.087820319881265,32.226741116670496,1.0090909090768185,0.6510416666666714,1.027827430994793,15.049024745988277,1.01294625343252,66.0,1.4288967926566443,391.1758320271377,0.0,72.265625,-62.117520940910254,552.2917566066856,2.3285
6,25053,30542,27888,13.944,426.0413937644928,70.3125,740.6725486620459,5489,0,10-02,1.1609951918118204,59.079155877476126,0.9818181818044721,-1.3020833333333286,1.3695913580376349,199.87434318715168,1.076696743820895,391.0,26.85241476080563,407.66348499307014,-1.953125,71.61458333333333,184.8253184411634,638.161510014907,2.835000000000001
7,30542,35398,33196,16.598,418.3643975166965,70.3125,650.813555463044,4856,0,10-02,1.1400747933207391,51.40215962967983,0.9818181818044721,-1.3020833333333286,1.2034314257576688,110.01534998814986,0.9525304040798445,-242.0,-7.676996247796296,414.53159009495886,0.0,70.96354166666667,-89.85899319900182,649.1111114486574,2.653999999999998
